Shimmer_89F4_TimestampSync_Unix_CAL,Shimmer_89F4_ECG_EMG_Status1_LPF_CAL,Shimmer_89F4_ECG_EMG_Status2_LPF_CAL,Shimmer_89F4_ECG_IBI_LA_RA_LPF_CAL,Shimmer_89F4_ECG_IBI_LL_LA_LPF_CAL,Shimmer_89F4_ECG_IBI_LL_RA_LPF_CAL,Shimmer_89F4_ECG_IBI_Vx_RL_LPF_CAL,Shimmer_89F4_ECG_LA_RA_24BIT_LPF_CAL,Shimmer_89F4_ECG_LL_LA_24BIT_LPF_CAL,Shimmer_89F4_ECG_LL_RA_24BIT_LPF_CAL,Shimmer_89F4_ECG_Vx_RL_24BIT_LPF_CAL,Shimmer_89F4_ECGtoHR_LA_RA_LPF_CAL,Shimmer_89F4_ECGtoHR_LL_LA_LPF_CAL,Shimmer_89F4_ECGtoHR_LL_RA_LPF_CAL,Shimmer_89F4_ECGtoHR_Vx_RL_LPF_CAL
1.71E+12,128,128,-1,-1,-1,-1,14.42923003,9.259984405,23.68921443,-605.0000721,-1,-1,-1,-1
1.71E+12,128,128,-1,-1,-1,-1,14.42923003,9.259984405,23.68921443,-605.0000721,-1,-1,-1,-1
1.71E+12,128,128,-1,-1,-1,-1,14.42923003,9.259984407,23.68921444,-605.0000721,-1,-1,-1,-1
1.71E+12,128,128,-1,-1,-1,-1,14.42923006,9.259984413,23.68921448,-605.0000721,-1,-1,-1,-1
1.71E+12,128,128,-1,-1,-1,-1,14.42923012,9.259984431,23.68921456,-605.0000721,-1,-1,-1,-1
1.71E+12,128,128,-1,-1,-1,-1,14.42923024,9.259984471,23.68921471,-605.0000721,-1,-1,-1,-1
1.71E+12,128,128,-1,-1,-1,-1,14.42923043,9.259984539,23.68921497,-605.0000721,-1,-1,-1,-1
1.71E+12,128,128,-1,-1,-1,-1,14.42923072,9.259984634,23.68921536,-605.0000721,-1,-1,-1,-1
1.71E+12,128,128,-1,-1,-1,-1,14.42923116,9.259984749,23.68921591,-605.0000721,-1,-1,-1,-1
1.71E+12,128,128,-1,-1,-1,-1,14.4292318,9.259984881,23.68921668,-605.0000721,-1,-1,-1,-1
1.71E+12,128,128,-1,-1,-1,-1,14.42923267,9.259985032,23.6892177,-605.0000721,-1,-1,-1,-1
1.71E+12,128,128,-1,-1,-1,-1,14.42923385,9.259985211,23.68921906,-605.0000721,-1,-1,-1,-1
1.71E+12,128,128,-1,-1,-1,-1,14.4292354,9.25998543,23.68922083,-605.0000721,-1,-1,-1,-1
1.71E+12,128,128,-1,-1,-1,-1,14.42923737,9.259985701,23.68922307,-605.0000721,-1,-1,-1,-1
1.71E+12,128,128,-1,-1,-1,-1,14.42923985,9.259986031,23.68922588,-605.0000721,-1,-1,-1,-1
1.71E+12,128,128,-1,-1,-1,-1,14.4292429,9.25998642,23.68922932,-605.0000721,-1,-1,-1,-1
1.71E+12,128,128,-1,-1,-1,-1,14.42924662,9.259986862,23.68923349,-605.0000721,-1,-1,-1,-1
1.71E+12,128,128,-1,-1,-1,-1,14.42925112,9.259987343,23.68923846,-605.0000721,-1,-1,-1,-1
1.71E+12,128,128,-1,-1,-1,-1,14.4292565,9.259987849,23.68924435,-605.0000721,-1,-1,-1,-1
1.71E+12,128,128,-1,-1,-1,-1,14.42926289,9.259988377,23.68925127,-605.0000721,-1,-1,-1,-1
1.71E+12,128,128,-1,-1,-1,-1,14.42927042,9.259988923,23.68925935,-605.0000721,-1,-1,-1,-1
1.71E+12,128,128,-1,-1,-1,-1,14.42927922,9.259989486,23.68926871,-605.0000721,-1,-1,-1,-1
1.71E+12,128,128,-1,-1,-1,-1,14.42928942,9.259990054,23.68927948,-605.0000721,-1,-1,-1,-1
1.71E+12,128,128,-1,-1,-1,-1,14.42930118,9.259990612,23.68929179,-605.0000721,-1,-1,-1,-1
1.71E+12,128,128,-1,-1,-1,-1,14.42931464,9.259991143,23.68930578,-605.0000721,-1,-1,-1,-1
1.71E+12,128,128,-1,-1,-1,-1,14.42932999,9.259991624,23.68932161,-605.0000721,-1,-1,-1,-1
1.71E+12,128,128,-1,-1,-1,-1,14.42934739,9.259992034,23.68933942,-605.0000721,-1,-1,-1,-1
1.71E+12,128,128,-1,-1,-1,-1,14.42936705,9.259992354,23.6893594,-605.0000721,-1,-1,-1,-1
1.71E+12,128,128,-1,-1,-1,-1,14.42938916,9.25999256,23.68938172,-605.0000721,-1,-1,-1,-1
1.71E+12,128,128,-1,-1,-1,-1,14.42941395,9.259992628,23.68940658,-605.0000721,-1,-1,-1,-1
1.71E+12,128,128,-1,-1,-1,-1,14.42944163,9.259992537,23.68943417,-605.0000721,-1,-1,-1,-1
1.71E+12,128,128,-1,-1,-1,-1,14.42947242,9.259992268,23.68946469,-605.0000721,-1,-1,-1,-1
1.71E+12,128,128,-1,-1,-1,-1,14.42950658,9.259991801,23.68949838,-605.0000721,-1,-1,-1,-1
1.71E+12,128,128,-1,-1,-1,-1,14.42954435,9.259991115,23.68953546,-605.0000721,-1,-1,-1,-1
1.71E+12,128,128,-1,-1,-1,-1,14.42958601,9.259990179,23.68957619,-605.0000721,-1,-1,-1,-1
1.71E+12,128,128,-1,-1,-1,-1,14.42963185,9.259988957,23.6896208,-605.0000721,-1,-1,-1,-1
1.71E+12,128,128,-1,-1,-1,-1,14.42968217,9.259987421,23.68966959,-605.0000721,-1,-1,-1,-1
1.71E+12,128,128,-1,-1,-1,-1,14.4297373,9.259985546,23.68972285,-605.0000721,-1,-1,-1,-1
1.71E+12,128,128,-1,-1,-1,-1,14.42979757,9.259983312,23.68978088,-605.0000721,-1,-1,-1,-1
1.71E+12,128,128,-1,-1,-1,-1,14.42986331,9.259980696,23.68984401,-605.0000721,-1,-1,-1,-1
1.71E+12,128,128,-1,-1,-1,-1,14.42993488,9.259977664,23.68991254,-605.0000721,-1,-1,-1,-1
1.71E+12,128,128,-1,-1,-1,-1,14.43001263,9.25997417,23.6899868,-605.0000721,-1,-1,-1,-1
1.71E+12,128,128,-1,-1,-1,-1,14.43009694,9.259970172,23.69006712,-605.0000721,-1,-1,-1,-1
1.71E+12,128,128,-1,-1,-1,-1,14.43018821,9.259965634,23.69015385,-605.0000721,-1,-1,-1,-1
1.71E+12,128,128,-1,-1,-1,-1,14.43028684,9.259960515,23.69024736,-605.0000721,-1,-1,-1,-1
1.71E+12,128,128,-1,-1,-1,-1,14.43039325,9.259954792,23.69034804,-605.0000721,-1,-1,-1,-1
1.71E+12,128,128,-1,-1,-1,-1,14.43050785,9.25994844,23.69045629,-605.0000721,-1,-1,-1,-1
1.71E+12,128,128,-1,-1,-1,-1,14.43063108,9.259941434,23.69057251,-605.0000721,-1,-1,-1,-1
1.71E+12,128,128,-1,-1,-1,-1,14.43076337,9.259933746,23.69069712,-605.0000721,-1,-1,-1,-1
1.71E+12,128,128,-1,-1,-1,-1,14.43090518,9.259925348,23.69083053,-605.0000721,-1,-1,-1,-1
1.71E+12,128,128,-1,-1,-1,-1,14.43105697,9.259916202,23.69097317,-605.0000721,-1,-1,-1,-1
1.71E+12,128,128,-1,-1,-1,-1,14.43121922,9.259906265,23.69112549,-605.0000721,-1,-1,-1,-1
1.71E+12,128,128,-1,-1,-1,-1,14.43139244,9.259895494,23.69128793,-605.0000721,-1,-1,-1,-1
1.71E+12,128,128,-1,-1,-1,-1,14.43157712,9.259883848,23.69146096,-605.0000721,-1,-1,-1,-1
1.71E+12,128,128,-1,-1,-1,-1,14.43177377,9.259871292,23.69164506,-605.0000721,-1,-1,-1,-1
1.71E+12,128,128,-1,-1,-1,-1,14.43198294,9.25985779,23.69184073,-605.0000721,-1,-1,-1,-1
1.71E+12,128,128,-1,-1,-1,-1,14.43220514,9.259843308,23.69204845,-605.0000721,-1,-1,-1,-1
1.71E+12,128,128,-1,-1,-1,-1,14.43244091,9.259827819,23.69226873,-605.0000721,-1,-1,-1,-1
1.71E+12,128,128,-1,-1,-1,-1,14.43269078,9.25981131,23.69250209,-605.0000721,-1,-1,-1,-1
1.71E+12,128,128,-1,-1,-1,-1,14.43295529,9.259793782,23.69274907,-605.0000721,-1,-1,-1,-1
1.71E+12,128,128,-1,-1,-1,-1,14.43323499,9.259775245,23.69301024,-605.0000721,-1,-1,-1,-1
1.71E+12,128,128,-1,-1,-1,-1,14.43353044,9.259755716,23.69328616,-605.0000721,-1,-1,-1,-1
1.71E+12,128,128,-1,-1,-1,-1,14.43384221,9.25973524,23.69357745,-605.0000721,-1,-1,-1,-1
1.71E+12,128,128,-1,-1,-1,-1,14.43417083,9.259713878,23.69388471,-605.0000721,-1,-1,-1,-1
1.71E+12,128,128,-1,-1,-1,-1,14.43451686,9.2596917,23.69420856,-605.0000721,-1,-1,-1,-1
1.71E+12,128,128,-1,-1,-1,-1,14.43488083,9.25966878,23.69454961,-605.0000721,-1,-1,-1,-1
1.71E+12,128,128,-1,-1,-1,-1,14.43526328,9.259645201,23.69490849,-605.0000721,-1,-1,-1,-1
1.71E+12,128,128,-1,-1,-1,-1,14.43566473,9.259621063,23.6952858,-605.0000721,-1,-1,-1,-1
1.71E+12,128,128,-1,-1,-1,-1,14.4360857,9.259596476,23.69568217,-605.0000721,-1,-1,-1,-1
1.71E+12,128,128,-1,-1,-1,-1,14.43652669,9.259571553,23.69609824,-605.0000721,-1,-1,-1,-1
1.71E+12,128,128,-1,-1,-1,-1,14.43698822,9.259546405,23.69653462,-605.0000721,-1,-1,-1,-1
1.71E+12,128,128,-1,-1,-1,-1,14.4374708,9.259521155,23.69699196,-605.0000721,-1,-1,-1,-1
1.71E+12,128,128,-1,-1,-1,-1,14.43797495,9.259495924,23.69747088,-605.0000721,-1,-1,-1,-1
1.71E+12,128,128,-1,-1,-1,-1,14.43850115,9.259470831,23.69797198,-605.0000721,-1,-1,-1,-1
1.71E+12,128,128,-1,-1,-1,-1,14.43904988,9.259446014,23.6984959,-605.0000721,-1,-1,-1,-1
1.71E+12,128,128,-1,-1,-1,-1,14.43962165,9.259421642,23.69904329,-605.0000721,-1,-1,-1,-1
1.71E+12,128,128,-1,-1,-1,-1,14.44021697,9.259397917,23.69961489,-605.0000721,-1,-1,-1,-1
1.71E+12,128,128,-1,-1,-1,-1,14.44083641,9.259375065,23.70021147,-605.0000721,-1,-1,-1,-1
1.71E+12,128,128,-1,-1,-1,-1,14.44148052,9.259353336,23.70083385,-605.0000721,-1,-1,-1,-1
1.71E+12,128,128,-1,-1,-1,-1,14.44214988,9.259333013,23.70148289,-605.0000721,-1,-1,-1,-1
1.71E+12,128,128,-1,-1,-1,-1,14.44284504,9.259314402,23.70215944,-605.0000721,-1,-1,-1,-1
1.71E+12,128,128,-1,-1,-1,-1,14.44356656,9.259297812,23.70286437,-605.0000721,-1,-1,-1,-1
1.71E+12,128,128,-1,-1,-1,-1,14.44431494,9.259283559,23.7035985,-605.0000721,-1,-1,-1,-1
1.71E+12,128,128,-1,-1,-1,-1,14.44509068,9.259271971,23.70436265,-605.0000721,-1,-1,-1,-1
1.71E+12,128,128,-1,-1,-1,-1,14.44589425,9.25926338,23.70515763,-605.0000721,-1,-1,-1,-1
1.71E+12,128,128,-1,-1,-1,-1,14.44672614,9.25925813,23.70598427,-605.0000721,-1,-1,-1,-1
1.71E+12,128,128,-1,-1,-1,-1,14.4475868,9.259256597,23.7068434,-605.0000721,-1,-1,-1,-1
1.71E+12,128,128,-1,-1,-1,-1,14.44847666,9.259259173,23.70773584,-605.0000721,-1,-1,-1,-1
1.71E+12,128,128,-1,-1,-1,-1,14.44939613,9.25926626,23.70866239,-605.0000721,-1,-1,-1,-1
1.71E+12,128,128,-1,-1,-1,-1,14.45034559,9.259278261,23.70962385,-605.0000721,-1,-1,-1,-1
1.71E+12,128,128,-1,-1,-1,-1,14.45132543,9.259295558,23.71062099,-605.0000721,-1,-1,-1,-1
1.71E+12,128,128,-1,-1,-1,-1,14.45233604,9.259318496,23.71165454,-605.0000721,-1,-1,-1,-1
1.71E+12,128,128,-1,-1,-1,-1,14.45337781,9.259347391,23.7127252,-605.0000721,-1,-1,-1,-1
1.71E+12,128,128,-1,-1,-1,-1,14.4544511,9.25938255,23.71383365,-605.0000721,-1,-1,-1,-1
1.71E+12,128,128,-1,-1,-1,-1,14.45555627,9.25942429,23.71498056,-605.0000721,-1,-1,-1,-1
1.71E+12,128,128,-1,-1,-1,-1,14.45669363,9.259472928,23.71616656,-605.0000721,-1,-1,-1,-1
1.71E+12,128,128,-1,-1,-1,-1,14.45786349,9.259528774,23.71739226,-605.0000721,-1,-1,-1,-1
1.71E+12,128,128,-1,-1,-1,-1,14.45906614,9.259592124,23.71865826,-605.0000721,-1,-1,-1,-1
1.71E+12,128,128,-1,-1,-1,-1,14.46030185,9.259663265,23.71996511,-605.0000721,-1,-1,-1,-1
1.71E+12,128,128,-1,-1,-1,-1,14.46157083,9.259742488,23.72131332,-605.0000721,-1,-1,-1,-1
1.71E+12,128,128,-1,-1,-1,-1,14.4628733,9.259830087,23.72270338,-605.0000721,-1,-1,-1,-1
1.71E+12,128,128,-1,-1,-1,-1,14.4642094,9.259926345,23.72413575,-605.0000721,-1,-1,-1,-1
1.71E+12,128,128,-1,-1,-1,-1,14.4655793,9.26003154,23.72561084,-605.0000721,-1,-1,-1,-1
1.71E+12,128,128,-1,-1,-1,-1,14.46698309,9.26014594,23.72712903,-605.0000721,-1,-1,-1,-1
1.71E+12,128,128,-1,-1,-1,-1,14.46842086,9.260269807,23.72869067,-605.0000721,-1,-1,-1,-1
1.71E+12,128,128,-1,-1,-1,-1,14.46989269,9.260403376,23.73029606,-605.0000721,-1,-1,-1,-1
1.71E+12,128,128,-1,-1,-1,-1,14.47139862,9.260546863,23.73194548,-605.0000721,-1,-1,-1,-1
1.71E+12,128,128,-1,-1,-1,-1,14.47293867,9.260700461,23.73363913,-605.0000721,-1,-1,-1,-1
1.71E+12,128,128,-1,-1,-1,-1,14.47451284,9.260864339,23.73537718,-605.0000721,-1,-1,-1,-1
1.71E+12,128,128,-1,-1,-1,-1,14.47612111,9.261038638,23.73715975,-605.0000721,-1,-1,-1,-1
1.71E+12,128,128,-1,-1,-1,-1,14.47776343,9.261223483,23.73898692,-605.0000721,-1,-1,-1,-1
1.71E+12,128,128,-1,-1,-1,-1,14.47943974,9.261418986,23.74085873,-605.0000721,-1,-1,-1,-1
1.71E+12,128,128,-1,-1,-1,-1,14.48114993,9.261625233,23.74277517,-605.0000721,-1,-1,-1,-1
1.71E+12,128,128,-1,-1,-1,-1,14.48289389,9.261842296,23.74473619,-605.0000721,-1,-1,-1,-1
1.71E+12,128,128,-1,-1,-1,-1,14.48467146,9.262070225,23.74674168,-605.0000721,-1,-1,-1,-1
1.71E+12,128,128,-1,-1,-1,-1,14.48648247,9.262309043,23.74879151,-605.0000721,-1,-1,-1,-1
1.71E+12,128,128,-1,-1,-1,-1,14.48832673,9.262558737,23.75088547,-605.0000721,-1,-1,-1,-1
1.71E+12,128,128,-1,-1,-1,-1,14.49020402,9.262819253,23.75302328,-605.0000721,-1,-1,-1,-1
1.71E+12,128,128,-1,-1,-1,-1,14.49211412,9.263090498,23.75520462,-605.0000721,-1,-1,-1,-1
1.71E+12,128,128,-1,-1,-1,-1,14.49405677,9.263372345,23.75742911,-605.0000721,-1,-1,-1,-1
1.71E+12,128,128,-1,-1,-1,-1,14.49603169,9.263664627,23.75969632,-605.0000721,-1,-1,-1,-1
1.71E+12,128,128,-1,-1,-1,-1,14.4980386,9.263967143,23.76200574,-605.0000721,-1,-1,-1,-1
1.71E+12,128,128,-1,-1,-1,-1,14.50007719,9.264279657,23.76435684,-605.0000721,-1,-1,-1,-1
1.71E+12,128,128,-1,-1,-1,-1,14.50214711,9.264601898,23.766749,-605.0000721,-1,-1,-1,-1
1.71E+12,128,128,-1,-1,-1,-1,14.50424799,9.264933563,23.76918155,-605.0000721,-1,-1,-1,-1
1.71E+12,128,128,-1,-1,-1,-1,14.50637944,9.265274309,23.77165375,-605.0000721,-1,-1,-1,-1
1.71E+12,128,128,-1,-1,-1,-1,14.50854105,9.265623742,23.77416479,-605.0000721,-1,-1,-1,-1
1.71E+12,128,128,-1,-1,-1,-1,14.51073238,9.26598142,23.7767138,-605.0000721,-1,-1,-1,-1
1.71E+12,128,128,-1,-1,-1,-1,14.51295297,9.266346859,23.77929983,-605.0000721,-1,-1,-1,-1
1.71E+12,128,128,-1,-1,-1,-1,14.51520235,9.266719547,23.7819219,-605.0000721,-1,-1,-1,-1
1.71E+12,128,128,-1,-1,-1,-1,14.51748003,9.267098938,23.78457897,-605.0000721,-1,-1,-1,-1
1.71E+12,128,128,-1,-1,-1,-1,14.51978549,9.267484446,23.78726993,-605.0000721,-1,-1,-1,-1
1.71E+12,128,128,-1,-1,-1,-1,14.52211818,9.267875444,23.78999363,-605.0000721,-1,-1,-1,-1
1.71E+12,128,128,-1,-1,-1,-1,14.52447757,9.268271265,23.79274883,-605.0000721,-1,-1,-1,-1
1.71E+12,128,128,-1,-1,-1,-1,14.52686306,9.268671198,23.79553426,-605.0000721,-1,-1,-1,-1
1.71E+12,128,128,-1,-1,-1,-1,14.52927408,9.269074498,23.79834858,-605.0000721,-1,-1,-1,-1
1.71E+12,128,128,-1,-1,-1,-1,14.53171001,9.269480383,23.80119039,-605.0000721,-1,-1,-1,-1
1.71E+12,128,128,-1,-1,-1,-1,14.53417021,9.269888043,23.80405825,-605.0000721,-1,-1,-1,-1
1.71E+12,128,128,-1,-1,-1,-1,14.53665404,9.270296636,23.80695067,-605.0000721,-1,-1,-1,-1
1.71E+12,128,128,-1,-1,-1,-1,14.53916086,9.27070529,23.80986615,-605.0000721,-1,-1,-1,-1
1.71E+12,128,128,-1,-1,-1,-1,14.54168999,9.271113114,23.81280311,-605.0000721,-1,-1,-1,-1
1.71E+12,128,128,-1,-1,-1,-1,14.54424076,9.271519192,23.81575995,-605.0000721,-1,-1,-1,-1
1.71E+12,128,128,-1,-1,-1,-1,14.54681244,9.271922587,23.81873503,-605.0000721,-1,-1,-1,-1
1.71E+12,128,128,-1,-1,-1,-1,14.54940433,9.272322345,23.82172667,-605.0000721,-1,-1,-1,-1
1.71E+12,128,128,-1,-1,-1,-1,14.55201568,9.272717496,23.82473318,-605.0000721,-1,-1,-1,-1
1.71E+12,128,128,-1,-1,-1,-1,14.55464576,9.273107051,23.82775281,-605.0000721,-1,-1,-1,-1
1.71E+12,128,128,-1,-1,-1,-1,14.5572938,9.273490008,23.83078381,-605.0000721,-1,-1,-1,-1
1.71E+12,128,128,-1,-1,-1,-1,14.55995905,9.273865357,23.83382441,-605.0000721,-1,-1,-1,-1
1.71E+12,128,128,-1,-1,-1,-1,14.56264074,9.274232084,23.83687282,-605.0000721,-1,-1,-1,-1
1.71E+12,128,128,-1,-1,-1,-1,14.56533809,9.274589164,23.83992725,-605.0000721,-1,-1,-1,-1
1.71E+12,128,128,-1,-1,-1,-1,14.56805031,9.274935569,23.84298588,-605.0000721,-1,-1,-1,-1
1.71E+12,128,128,-1,-1,-1,-1,14.57077663,9.275270268,23.8460469,-605.0000721,-1,-1,-1,-1
1.71E+12,128,128,-1,-1,-1,-1,14.57351624,9.275592232,23.84910848,-605.0000721,-1,-1,-1,-1
1.71E+12,128,128,-1,-1,-1,-1,14.57626836,9.275900445,23.85216881,-605.0000721,-1,-1,-1,-1
1.71E+12,128,128,-1,-1,-1,-1,14.57903219,9.276193903,23.8552261,-605.0000721,-1,-1,-1,-1
1.71E+12,128,128,-1,-1,-1,-1,14.58180695,9.276471615,23.85827856,-605.0000721,-1,-1,-1,-1
1.71E+12,128,128,-1,-1,-1,-1,14.58459183,9.276732607,23.86132444,-605.0000721,-1,-1,-1,-1
1.71E+12,128,128,-1,-1,-1,-1,14.58738607,9.276975932,23.864362,-605.0000721,-1,-1,-1,-1
1.71E+12,128,128,-1,-1,-1,-1,14.59018886,9.277200664,23.86738952,-605.0000721,-1,-1,-1,-1
1.71E+12,128,128,-1,-1,-1,-1,14.59299942,9.2774059,23.87040532,-605.0000721,-1,-1,-1,-1
1.71E+12,128,128,-1,-1,-1,-1,14.59581696,9.277590753,23.87340771,-605.0000721,-1,-1,-1,-1
1.71E+12,128,128,-1,-1,-1,-1,14.59864071,9.277754359,23.87639507,-605.0000721,-1,-1,-1,-1
1.71E+12,128,128,-1,-1,-1,-1,14.60146992,9.277895886,23.87936581,-605.0000721,-1,-1,-1,-1
1.71E+12,128,128,-1,-1,-1,-1,14.60430384,9.278014542,23.88231838,-605.0000721,-1,-1,-1,-1
1.71E+12,128,128,-1,-1,-1,-1,14.60714171,9.278109573,23.88525129,-605.0000721,-1,-1,-1,-1
1.71E+12,128,128,-1,-1,-1,-1,14.60998282,9.278180276,23.8881631,-605.0000721,-1,-1,-1,-1
1.71E+12,128,128,-1,-1,-1,-1,14.61282644,9.278225984,23.89105242,-605.0000721,-1,-1,-1,-1
1.71E+12,128,128,-1,-1,-1,-1,14.61567185,9.278246041,23.89391789,-605.0000721,-1,-1,-1,-1
1.71E+12,128,128,-1,-1,-1,-1,14.61851835,9.278239786,23.89675814,-605.0000721,-1,-1,-1,-1
1.71E+12,128,128,-1,-1,-1,-1,14.62136528,9.278206489,23.89957176,-605.0000721,-1,-1,-1,-1
1.71E+12,128,128,-1,-1,-1,-1,14.624212,9.278145274,23.90235728,-605.0000721,-1,-1,-1,-1
1.71E+12,128,128,-1,-1,-1,-1,14.627058,9.278055046,23.90511305,-605.0000721,-1,-1,-1,-1
1.71E+12,128,128,-1,-1,-1,-1,14.62990288,9.277934477,23.90783736,-605.0000721,-1,-1,-1,-1
1.71E+12,128,128,-1,-1,-1,-1,14.63274637,9.277782104,23.91052848,-605.0000721,-1,-1,-1,-1
1.71E+12,128,128,-1,-1,-1,-1,14.6355884,9.277596395,23.9131848,-605.0000721,-1,-1,-1,-1
1.71E+12,128,128,-1,-1,-1,-1,14.6384291,9.277375724,23.91580482,-605.0000721,-1,-1,-1,-1
1.71E+12,128,128,-1,-1,-1,-1,14.64126884,9.277118341,23.91838718,-605.0000721,-1,-1,-1,-1
1.71E+12,128,128,-1,-1,-1,-1,14.64410832,9.276822429,23.92093075,-605.0000721,-1,-1,-1,-1
1.71E+12,128,128,-1,-1,-1,-1,14.64694858,9.276486155,23.92343473,-605.0000721,-1,-1,-1,-1
1.71E+12,128,128,-1,-1,-1,-1,14.64979101,9.27610776,23.92589877,-605.0000721,-1,-1,-1,-1
1.71E+12,128,128,-1,-1,-1,-1,14.65263735,9.275685688,23.92832304,-605.0000721,-1,-1,-1,-1
1.71E+12,128,128,-1,-1,-1,-1,14.65548959,9.27521857,23.93070816,-605.0000721,-1,-1,-1,-1
1.71E+12,128,128,-1,-1,-1,-1,14.65834985,9.274705383,23.93305523,-605.0000721,-1,-1,-1,-1
1.71E+12,128,128,-1,-1,-1,-1,14.66122019,9.274145889,23.93536608,-605.0000721,-1,-1,-1,-1
1.71E+12,128,128,-1,-1,-1,-1,14.66410252,9.273540772,23.93764329,-605.0000721,-1,-1,-1,-1
1.71E+12,128,128,-1,-1,-1,-1,14.66699837,9.272891833,23.9398902,-605.0000721,-1,-1,-1,-1
1.71E+12,128,128,-1,-1,-1,-1,14.66990861,9.272202381,23.94211099,-605.0000721,-1,-1,-1,-1
1.71E+12,128,128,-1,-1,-1,-1,14.6728336,9.271476884,23.94431048,-605.0000721,-1,-1,-1,-1
1.71E+12,128,128,-1,-1,-1,-1,14.67577346,9.270720146,23.94649361,-605.0000721,-1,-1,-1,-1
1.71E+12,128,128,-1,-1,-1,-1,14.6787282,9.269936732,23.94866494,-605.0000721,-1,-1,-1,-1
1.71E+12,128,128,-1,-1,-1,-1,14.68169793,9.269130653,23.95082858,-605.0000721,-1,-1,-1,-1
1.71E+12,128,128,-1,-1,-1,-1,14.68468263,9.268305418,23.95298805,-605.0000721,-1,-1,-1,-1
1.71E+12,128,128,-1,-1,-1,-1,14.68768198,9.267464269,23.95514624,-605.0000721,-1,-1,-1,-1
1.71E+12,128,128,-1,-1,-1,-1,14.69069524,9.266610478,23.95730572,-605.0000721,-1,-1,-1,-1
1.71E+12,128,128,-1,-1,-1,-1,14.69372147,9.265747392,23.95946887,-605.0000721,-1,-1,-1,-1
1.71E+12,128,128,-1,-1,-1,-1,14.69675972,9.264878212,23.96163793,-605.0000721,-1,-1,-1,-1
1.71E+12,128,128,-1,-1,-1,-1,14.69980918,9.264005905,23.96381509,-605.0000721,-1,-1,-1,-1
1.71E+12,128,128,-1,-1,-1,-1,14.70286936,9.263133188,23.96600255,-605.0000721,-1,-1,-1,-1
1.71E+12,128,128,-1,-1,-1,-1,14.70594013,9.262262543,23.96820268,-605.0000721,-1,-1,-1,-1
1.71E+12,128,128,-1,-1,-1,-1,14.70902173,9.261396221,23.97041795,-605.0000721,-1,-1,-1,-1
1.71E+12,128,128,-1,-1,-1,-1,14.71211467,9.260536386,23.97265106,-605.0000721,-1,-1,-1,-1
1.71E+12,128,128,-1,-1,-1,-1,14.71521971,9.259685188,23.9749049,-605.0000721,-1,-1,-1,-1
1.71E+12,128,128,-1,-1,-1,-1,14.71833785,9.25884475,23.9771826,-605.0000721,-1,-1,-1,-1
1.71E+12,128,128,-1,-1,-1,-1,14.72147015,9.258017255,23.97948741,-605.0000721,-1,-1,-1,-1
1.71E+12,128,128,-1,-1,-1,-1,14.72461771,9.257204955,23.98182266,-605.0000721,-1,-1,-1,-1
1.71E+12,128,128,-1,-1,-1,-1,14.72778157,9.256410197,23.98419177,-605.0000721,-1,-1,-1,-1
1.71E+12,128,128,-1,-1,-1,-1,14.73096271,9.255635496,23.98659821,-605.0000721,-1,-1,-1,-1
1.71E+12,128,128,-1,-1,-1,-1,14.73416201,9.254883546,23.98904556,-605.0000721,-1,-1,-1,-1
1.71E+12,128,128,-1,-1,-1,-1,14.73738031,9.254157196,23.99153751,-605.0000721,-1,-1,-1,-1
1.71E+12,128,128,-1,-1,-1,-1,14.74061835,9.253459422,23.99407777,-605.0000721,-1,-1,-1,-1
1.71E+12,128,128,-1,-1,-1,-1,14.74387678,9.25279331,23.99667009,-605.0000721,-1,-1,-1,-1
1.71E+12,128,128,-1,-1,-1,-1,14.74715615,9.252162033,23.99931818,-605.0000721,-1,-1,-1,-1
1.71E+12,128,128,-1,-1,-1,-1,14.75045693,9.251568819,24.00202575,-605.0000721,-1,-1,-1,-1
1.71E+12,128,128,-1,-1,-1,-1,14.75377954,9.251016922,24.00479646,-605.0000721,-1,-1,-1,-1
1.71E+12,128,128,-1,-1,-1,-1,14.75712431,9.250509608,24.00763392,-605.0000721,-1,-1,-1,-1
1.71E+12,128,128,-1,-1,-1,-1,14.76049153,9.250050154,24.01054168,-605.0000721,-1,-1,-1,-1
1.71E+12,128,128,-1,-1,-1,-1,14.76388139,9.249641826,24.01352321,-605.0000721,-1,-1,-1,-1
1.71E+12,128,128,-1,-1,-1,-1,14.76729401,9.249287876,24.01658188,-605.0000721,-1,-1,-1,-1
1.71E+12,128,128,-1,-1,-1,-1,14.7707294,9.248991519,24.01972092,-605.0000721,-1,-1,-1,-1
1.71E+12,128,128,-1,-1,-1,-1,14.77418753,9.248755895,24.02294342,-605.0000721,-1,-1,-1,-1
1.71E+12,128,128,-1,-1,-1,-1,14.77766826,9.248584068,24.02625233,-605.0000721,-1,-1,-1,-1
1.71E+12,128,128,-1,-1,-1,-1,14.7811714,9.248479012,24.02965041,-605.0000721,-1,-1,-1,-1
1.71E+12,128,128,-1,-1,-1,-1,14.78469667,9.248443607,24.03314028,-605.0000721,-1,-1,-1,-1
1.71E+12,128,128,-1,-1,-1,-1,14.78824372,9.248480625,24.03672435,-605.0000721,-1,-1,-1,-1
1.71E+12,128,128,-1,-1,-1,-1,14.79181214,9.248592714,24.04040485,-605.0000721,-1,-1,-1,-1
1.71E+12,128,128,-1,-1,-1,-1,14.79540141,9.248782381,24.04418379,-605.0000721,-1,-1,-1,-1
1.71E+12,128,128,-1,-1,-1,-1,14.79901096,9.249051971,24.04806293,-605.0000721,-1,-1,-1,-1
1.71E+12,128,128,-1,-1,-1,-1,14.80264014,9.249403642,24.05204378,-605.0000721,-1,-1,-1,-1
1.71E+12,128,128,-1,-1,-1,-1,14.80628825,9.249839347,24.0561276,-605.0000721,-1,-1,-1,-1
1.71E+12,128,128,-1,-1,-1,-1,14.80995452,9.250360828,24.06031535,-605.0000721,-1,-1,-1,-1
1.71E+12,128,128,-1,-1,-1,-1,14.81363816,9.250969596,24.06460775,-605.0000721,-1,-1,-1,-1
1.71E+12,128,128,-1,-1,-1,-1,14.81733829,9.251666934,24.06900522,-605.0000721,-1,-1,-1,-1
1.71E+12,128,128,-1,-1,-1,-1,14.82105401,9.252453898,24.07350791,-605.0000721,-1,-1,-1,-1
1.71E+12,128,128,-1,-1,-1,-1,14.82478436,9.253331298,24.07811566,-605.0000721,-1,-1,-1,-1
1.71E+12,128,128,-1,-1,-1,-1,14.82852835,9.254299689,24.08282804,-605.0000721,-1,-1,-1,-1
1.71E+12,128,128,-1,-1,-1,-1,14.83228494,9.255359361,24.0876443,-605.0000721,-1,-1,-1,-1
1.71E+12,128,128,-1,-1,-1,-1,14.83605304,9.256510318,24.09256336,-605.0000721,-1,-1,-1,-1
1.71E+12,128,128,-1,-1,-1,-1,14.83983156,9.257752275,24.09758384,-605.0000721,-1,-1,-1,-1
1.71E+12,128,128,-1,-1,-1,-1,14.84361938,9.259084656,24.10270403,-605.0000721,-1,-1,-1,-1
1.71E+12,128,128,-1,-1,-1,-1,14.84741537,9.260506587,24.10792196,-605.0000721,-1,-1,-1,-1
1.71E+12,128,128,-1,-1,-1,-1,14.85121842,9.262016915,24.11323534,-605.0000721,-1,-1,-1,-1
1.71E+12,128,128,-1,-1,-1,-1,14.85502738,9.263614201,24.11864159,-605.0000721,-1,-1,-1,-1
1.71E+12,128,128,-1,-1,-1,-1,14.85884113,9.265296705,24.12413783,-605.0000721,-1,-1,-1,-1
1.71E+12,128,128,-1,-1,-1,-1,14.86265853,9.267062387,24.12972092,-605.0000721,-1,-1,-1,-1
1.71E+12,128,128,-1,-1,-1,-1,14.86647847,9.268908915,24.13538738,-605.0000721,-1,-1,-1,-1
1.71E+12,128,128,-1,-1,-1,-1,14.87029986,9.270833643,24.1411335,-605.0000721,-1,-1,-1,-1
1.71E+12,128,128,-1,-1,-1,-1,14.87412165,9.272833629,24.14695528,-605.0000721,-1,-1,-1,-1
1.71E+12,128,128,-1,-1,-1,-1,14.87794283,9.274905652,24.15284848,-605.0000721,-1,-1,-1,-1
1.71E+12,128,128,-1,-1,-1,-1,14.88176243,9.277046215,24.15880865,-605.0000721,-1,-1,-1,-1
1.71E+12,128,128,-1,-1,-1,-1,14.88557954,9.279251563,24.16483111,-605.0000721,-1,-1,-1,-1
1.71E+12,128,128,-1,-1,-1,-1,14.88939329,9.281517685,24.17091097,-605.0000721,-1,-1,-1,-1
1.71E+12,128,128,-1,-1,-1,-1,14.89320286,9.283840319,24.17704318,-605.0000721,-1,-1,-1,-1
1.71E+12,128,128,-1,-1,-1,-1,14.8970075,9.286214959,24.18322245,-605.0000721,-1,-1,-1,-1
1.71E+12,128,128,-1,-1,-1,-1,14.90080653,9.28863686,24.18944339,-605.0000721,-1,-1,-1,-1
1.71E+12,128,128,-1,-1,-1,-1,14.90459934,9.291101048,24.19570038,-605.0000721,-1,-1,-1,-1
1.71E+12,128,128,-1,-1,-1,-1,14.90838539,9.293602334,24.20198772,-605.0000721,-1,-1,-1,-1
1.71E+12,128,128,-1,-1,-1,-1,14.91216424,9.296135338,24.20829958,-605.0000721,-1,-1,-1,-1
1.71E+12,128,128,-1,-1,-1,-1,14.91593554,9.298694494,24.21463004,-605.0000721,-1,-1,-1,-1
1.71E+12,128,128,-1,-1,-1,-1,14.91969904,9.301274067,24.22097311,-605.0000721,-1,-1,-1,-1
1.71E+12,128,128,-1,-1,-1,-1,14.92345457,9.303868164,24.22732273,-605.0000721,-1,-1,-1,-1
1.71E+12,128,128,-1,-1,-1,-1,14.92720204,9.306470756,24.23367279,-605.0000721,-1,-1,-1,-1
1.71E+12,128,128,-1,-1,-1,-1,14.93094145,9.30907569,24.24001714,-605.0000721,-1,-1,-1,-1
1.71E+12,128,128,-1,-1,-1,-1,14.93467293,9.311676695,24.24634962,-605.0000721,-1,-1,-1,-1
1.71E+12,128,128,-1,-1,-1,-1,14.93839668,9.314267399,24.25266408,-605.0000721,-1,-1,-1,-1
1.71E+12,128,128,-1,-1,-1,-1,14.94211306,9.316841365,24.25895443,-605.0000721,-1,-1,-1,-1
1.71E+12,128,128,-1,-1,-1,-1,14.94582252,9.319392115,24.26521464,-605.0000721,-1,-1,-1,-1
1.71E+12,128,128,-1,-1,-1,-1,14.94952564,9.321913151,24.27143879,-605.0000721,-1,-1,-1,-1
1.71E+12,128,128,-1,-1,-1,-1,14.95322312,9.324397961,24.27762108,-605.0000721,-1,-1,-1,-1
1.71E+12,128,128,-1,-1,-1,-1,14.95691575,9.326840046,24.2837558,-605.0000721,-1,-1,-1,-1
1.71E+12,128,128,-1,-1,-1,-1,14.96060446,9.329232954,24.28983742,-605.0000721,-1,-1,-1,-1
1.71E+12,128,128,-1,-1,-1,-1,14.96429026,9.331570286,24.29586055,-605.0000721,-1,-1,-1,-1
1.71E+12,128,128,-1,-1,-1,-1,14.96797427,9.333845709,24.30181998,-605.0000721,-1,-1,-1,-1
1.71E+12,128,128,-1,-1,-1,-1,14.97165773,9.336052988,24.30771071,-605.0000721,-1,-1,-1,-1
1.71E+12,128,128,-1,-1,-1,-1,14.97534197,9.338186012,24.31352798,-605.0000721,-1,-1,-1,-1
1.71E+12,128,128,-1,-1,-1,-1,14.97902846,9.340238802,24.31926726,-605.0000721,-1,-1,-1,-1
1.71E+12,128,128,-1,-1,-1,-1,14.9827187,9.342205513,24.32492421,-605.0000721,-1,-1,-1,-1
1.71E+12,128,128,-1,-1,-1,-1,14.98641428,9.344080443,24.33049472,-605.0000721,-1,-1,-1,-1
1.71E+12,128,128,-1,-1,-1,-1,14.99011682,9.345858064,24.33597488,-605.0000721,-1,-1,-1,-1
1.71E+12,128,128,-1,-1,-1,-1,14.99382801,9.347533031,24.34136104,-605.0000721,-1,-1,-1,-1
1.71E+12,128,128,-1,-1,-1,-1,14.9975496,9.349100201,24.3466498,-605.0000721,-1,-1,-1,-1
1.71E+12,128,128,-1,-1,-1,-1,15.00128341,9.350554643,24.35183805,-605.0000721,-1,-1,-1,-1
1.71E+12,128,128,-1,-1,-1,-1,15.00503135,9.351891676,24.35692303,-605.0000721,-1,-1,-1,-1
1.71E+12,128,128,-1,-1,-1,-1,15.00879541,9.353106889,24.3619023,-605.0000721,-1,-1,-1,-1
1.71E+12,128,128,-1,-1,-1,-1,15.01257767,9.354196153,24.36677382,-605.0000721,-1,-1,-1,-1
1.71E+12,128,128,-1,-1,-1,-1,15.01638025,9.355155634,24.37153588,-605.0000721,-1,-1,-1,-1
1.71E+12,128,128,-1,-1,-1,-1,15.02020532,9.355981795,24.37618711,-605.0000721,-1,-1,-1,-1
1.71E+12,128,128,-1,-1,-1,-1,15.02405508,9.356671393,24.38072647,-605.0000721,-1,-1,-1,-1
1.71E+12,128,128,-1,-1,-1,-1,15.02793179,9.357221497,24.38515328,-605.0000721,-1,-1,-1,-1
1.71E+12,128,128,-1,-1,-1,-1,15.03183774,9.3576295,24.38946724,-605.0000721,-1,-1,-1,-1
1.71E+12,128,128,-1,-1,-1,-1,15.03577525,9.35789314,24.39366839,-605.0000721,-1,-1,-1,-1
1.71E+12,128,128,-1,-1,-1,-1,15.03974664,9.358010533,24.39775718,-605.0000721,-1,-1,-1,-1
1.71E+12,128,128,-1,-1,-1,-1,15.04375425,9.357980197,24.40173444,-605.0000721,-1,-1,-1,-1
1.71E+12,128,128,-1,-1,-1,-1,15.04780035,9.35780105,24.4056014,-605.0000721,-1,-1,-1,-1
1.71E+12,128,128,-1,-1,-1,-1,15.05188725,9.357472384,24.40935963,-605.0000721,-1,-1,-1,-1
1.71E+12,128,128,-1,-1,-1,-1,15.05601721,9.356993849,24.41301106,-605.0000721,-1,-1,-1,-1
1.71E+12,128,128,-1,-1,-1,-1,15.06019252,9.356365459,24.41655798,-605.0000721,-1,-1,-1,-1
1.71E+12,128,128,-1,-1,-1,-1,15.06441539,9.355587604,24.42000299,-605.0000721,-1,-1,-1,-1
1.71E+12,128,128,-1,-1,-1,-1,15.06868799,9.354661051,24.42334905,-605.0000721,-1,-1,-1,-1
1.71E+12,128,128,-1,-1,-1,-1,15.07301248,9.353586935,24.42659942,-605.0000721,-1,-1,-1,-1
1.71E+12,128,128,-1,-1,-1,-1,15.07739095,9.35236674,24.42975769,-605.0000721,-1,-1,-1,-1
1.71E+12,128,128,-1,-1,-1,-1,15.08182546,9.351002306,24.43282776,-605.0000721,-1,-1,-1,-1
1.71E+12,128,128,-1,-1,-1,-1,15.08631797,9.34949583,24.4358138,-605.0000721,-1,-1,-1,-1
1.71E+12,128,128,-1,-1,-1,-1,15.09087041,9.347849858,24.43872027,-605.0000721,-1,-1,-1,-1
1.71E+12,128,128,-1,-1,-1,-1,15.0954846,9.346067274,24.44155188,-605.0000721,-1,-1,-1,-1
1.71E+12,128,128,-1,-1,-1,-1,15.10016228,9.344151283,24.44431356,-605.0000721,-1,-1,-1,-1
1.71E+12,128,128,-1,-1,-1,-1,15.10490508,9.342105418,24.4470105,-605.0000721,-1,-1,-1,-1
1.71E+12,128,128,-1,-1,-1,-1,15.10971453,9.339933538,24.44964807,-605.0000721,-1,-1,-1,-1
1.71E+12,128,128,-1,-1,-1,-1,15.11459206,9.337639802,24.45223186,-605.0000721,-1,-1,-1,-1
1.71E+12,128,128,-1,-1,-1,-1,15.11953897,9.33522867,24.45476764,-605.0000721,-1,-1,-1,-1
1.71E+12,128,128,-1,-1,-1,-1,15.12455645,9.332704881,24.45726133,-605.0000721,-1,-1,-1,-1
1.71E+12,128,128,-1,-1,-1,-1,15.12964553,9.330073434,24.45971897,-605.0000721,-1,-1,-1,-1
1.71E+12,128,128,-1,-1,-1,-1,15.13480714,9.327339571,24.46214671,-605.0000721,-1,-1,-1,-1
1.71E+12,128,128,-1,-1,-1,-1,15.14004202,9.324508758,24.46455077,-605.0000721,-1,-1,-1,-1
1.71E+12,128,128,-1,-1,-1,-1,15.14535079,9.321586659,24.46693745,-605.0000721,-1,-1,-1,-1
1.71E+12,128,128,-1,-1,-1,-1,15.15073394,9.318579123,24.46931306,-605.0000721,-1,-1,-1,-1
1.71E+12,128,128,-1,-1,-1,-1,15.15619176,9.315492175,24.47168394,-605.0000721,-1,-1,-1,-1
1.71E+12,128,128,-1,-1,-1,-1,15.16172442,9.312331992,24.47405641,-605.0000721,-1,-1,-1,-1
1.71E+12,128,128,-1,-1,-1,-1,15.16733188,9.309104908,24.47643679,-605.0000721,-1,-1,-1,-1
1.71E+12,128,128,-1,-1,-1,-1,15.17301396,9.305817384,24.47883135,-605.0000721,-1,-1,-1,-1
1.71E+12,128,128,-1,-1,-1,-1,15.17877031,9.302475971,24.48124628,-605.0000721,-1,-1,-1,-1
1.71E+12,128,128,-1,-1,-1,-1,15.18460038,9.299087304,24.48368769,-605.0000721,-1,-1,-1,-1
1.71E+12,128,128,-1,-1,-1,-1,15.19050345,9.29565807,24.48616152,-605.0000721,-1,-1,-1,-1
1.71E+12,128,128,-1,-1,-1,-1,15.1964786,9.292194989,24.48867359,-605.0000721,-1,-1,-1,-1
1.71E+12,128,128,-1,-1,-1,-1,15.20252474,9.28870478,24.49122952,-605.0000721,-1,-1,-1,-1
1.71E+12,128,128,-1,-1,-1,-1,15.20864062,9.285194147,24.49383477,-605.0000721,-1,-1,-1,-1
1.71E+12,128,128,-1,-1,-1,-1,15.21482481,9.28166978,24.49649459,-605.0000721,-1,-1,-1,-1
1.71E+12,128,128,-1,-1,-1,-1,15.22107569,9.278138353,24.49921404,-605.0000721,-1,-1,-1,-1
1.71E+12,128,128,-1,-1,-1,-1,15.22739146,9.274606496,24.50199796,-605.0000721,-1,-1,-1,-1
1.71E+12,128,128,-1,-1,-1,-1,15.23377014,9.271080767,24.50485091,-605.0000721,-1,-1,-1,-1
1.71E+12,128,128,-1,-1,-1,-1,15.24020958,9.26756763,24.50777721,-605.0000721,-1,-1,-1,-1
1.71E+12,128,128,-1,-1,-1,-1,15.24670743,9.264073433,24.51078086,-605.0000721,-1,-1,-1,-1
1.71E+12,128,128,-1,-1,-1,-1,15.25326118,9.260604405,24.51386559,-605.0000721,-1,-1,-1,-1
1.71E+12,128,128,-1,-1,-1,-1,15.25986816,9.257166623,24.51703478,-605.0000721,-1,-1,-1,-1
1.71E+12,128,128,-1,-1,-1,-1,15.26652554,9.253766015,24.52029155,-605.0000721,-1,-1,-1,-1
1.71E+12,128,128,-1,-1,-1,-1,15.27323031,9.250408347,24.52363866,-605.0000721,-1,-1,-1,-1
1.71E+12,128,128,-1,-1,-1,-1,15.27997933,9.247099213,24.52707854,-605.0000721,-1,-1,-1,-1
1.71E+12,128,128,-1,-1,-1,-1,15.28676927,9.243844022,24.53061329,-605.0000721,-1,-1,-1,-1
1.71E+12,128,128,-1,-1,-1,-1,15.29359669,9.24064797,24.53424466,-605.0000721,-1,-1,-1,-1
1.71E+12,128,128,-1,-1,-1,-1,15.30045797,9.237516037,24.53797401,-605.0000721,-1,-1,-1,-1
1.71E+12,128,128,-1,-1,-1,-1,15.30734939,9.234452969,24.54180235,-605.0000721,-1,-1,-1,-1
1.71E+12,128,128,-1,-1,-1,-1,15.31426706,9.231463263,24.54573032,-605.0000721,-1,-1,-1,-1
1.71E+12,128,128,-1,-1,-1,-1,15.32120702,9.228551164,24.54975818,-605.0000721,-1,-1,-1,-1
1.71E+12,128,128,-1,-1,-1,-1,15.32816516,9.225720662,24.55388582,-605.0000721,-1,-1,-1,-1
1.71E+12,128,128,-1,-1,-1,-1,15.3351373,9.222975495,24.5581128,-605.0000721,-1,-1,-1,-1
1.71E+12,128,128,-1,-1,-1,-1,15.34211914,9.220319136,24.56243828,-605.0000721,-1,-1,-1,-1
1.71E+12,128,128,-1,-1,-1,-1,15.34910628,9.21775479,24.56686107,-605.0000721,-1,-1,-1,-1
1.71E+12,128,128,-1,-1,-1,-1,15.35609422,9.215285379,24.5713796,-605.0000721,-1,-1,-1,-1
1.71E+12,128,128,-1,-1,-1,-1,15.36307842,9.212913532,24.57599195,-605.0000721,-1,-1,-1,-1
1.71E+12,128,128,-1,-1,-1,-1,15.37005422,9.210641588,24.58069581,-605.0000721,-1,-1,-1,-1
1.71E+12,128,128,-1,-1,-1,-1,15.37701694,9.208471599,24.58548854,-605.0000721,-1,-1,-1,-1
1.71E+12,128,128,-1,-1,-1,-1,15.38396184,9.206405333,24.59036717,-605.0000721,-1,-1,-1,-1
1.71E+12,128,128,-1,-1,-1,-1,15.39088412,9.204444288,24.59532841,-605.0000721,-1,-1,-1,-1
1.71E+12,128,128,-1,-1,-1,-1,15.39777896,9.202589685,24.60036865,-605.0000721,-1,-1,-1,-1
1.71E+12,128,128,-1,-1,-1,-1,15.40464152,9.200842458,24.60548397,-605.0000721,-1,-1,-1,-1
1.71E+12,128,128,-1,-1,-1,-1,15.4114669,9.199203269,24.61067017,-605.0000721,-1,-1,-1,-1
1.71E+12,128,128,-1,-1,-1,-1,15.41825022,9.197672518,24.61592274,-605.0000721,-1,-1,-1,-1
1.71E+12,128,128,-1,-1,-1,-1,15.4249866,9.196250332,24.62123693,-605.0000721,-1,-1,-1,-1
1.71E+12,128,128,-1,-1,-1,-1,15.43167115,9.19493657,24.62660772,-605.0000721,-1,-1,-1,-1
1.71E+12,128,128,-1,-1,-1,-1,15.43829902,9.193730842,24.63202986,-605.0000721,-1,-1,-1,-1
1.71E+12,128,128,-1,-1,-1,-1,15.4448654,9.19263251,24.63749791,-605.0000721,-1,-1,-1,-1
1.71E+12,128,128,-1,-1,-1,-1,15.45136551,9.19164071,24.64300622,-605.0000721,-1,-1,-1,-1
1.71E+12,128,128,-1,-1,-1,-1,15.45779462,9.190754374,24.648549,-605.0000721,-1,-1,-1,-1
1.71E+12,128,128,-1,-1,-1,-1,15.46414805,9.189972225,24.65412028,-605.0000721,-1,-1,-1,-1
1.71E+12,128,128,-1,-1,-1,-1,15.47042116,9.189292792,24.65971395,-605.0000721,-1,-1,-1,-1
1.71E+12,128,128,-1,-1,-1,-1,15.4766094,9.188714405,24.66532381,-605.0000721,-1,-1,-1,-1
1.71E+12,128,128,-1,-1,-1,-1,15.4827083,9.188235203,24.67094351,-605.0000721,-1,-1,-1,-1
1.71E+12,128,128,-1,-1,-1,-1,15.48871349,9.187853156,24.67656665,-605.0000721,-1,-1,-1,-1
1.71E+12,128,128,-1,-1,-1,-1,15.49462071,9.187566108,24.68218682,-605.0000721,-1,-1,-1,-1
1.71E+12,128,128,-1,-1,-1,-1,15.50042581,9.187371816,24.68779763,-605.0000721,-1,-1,-1,-1
1.71E+12,128,128,-1,-1,-1,-1,15.50612475,9.187268032,24.69339278,-605.0000721,-1,-1,-1,-1
1.71E+12,128,128,-1,-1,-1,-1,15.51171356,9.187252593,24.69896615,-605.0000721,-1,-1,-1,-1
1.71E+12,128,128,-1,-1,-1,-1,15.51718834,9.187323514,24.70451185,-605.0000721,-1,-1,-1,-1
1.71E+12,128,128,-1,-1,-1,-1,15.52254521,9.187479009,24.71002422,-605.0000721,-1,-1,-1,-1
1.71E+12,128,128,-1,-1,-1,-1,15.52778032,9.187717411,24.71549773,-605.0000721,-1,-1,-1,-1
1.71E+12,128,128,-1,-1,-1,-1,15.53288981,9.18803712,24.72092693,-605.0000721,-1,-1,-1,-1
1.71E+12,128,128,-1,-1,-1,-1,15.53786982,9.18843665,24.72630647,-605.0000721,-1,-1,-1,-1
1.71E+12,128,128,-1,-1,-1,-1,15.54271641,9.18891466,24.73163107,-605.0000721,-1,-1,-1,-1
1.71E+12,128,128,-1,-1,-1,-1,15.54742554,9.189469925,24.73689547,-605.0000721,-1,-1,-1,-1
1.71E+12,128,128,-1,-1,-1,-1,15.55199304,9.190101277,24.74209432,-605.0000721,-1,-1,-1,-1
1.71E+12,128,128,-1,-1,-1,-1,15.5564146,9.190807538,24.74722213,-605.0000721,-1,-1,-1,-1
1.71E+12,128,128,-1,-1,-1,-1,15.56068577,9.191587397,24.75227317,-605.0000721,-1,-1,-1,-1
1.71E+12,128,128,-1,-1,-1,-1,15.56480212,9.19243945,24.75724157,-605.0000721,-1,-1,-1,-1
1.71E+12,128,128,-1,-1,-1,-1,15.56875929,9.193362035,24.76212132,-605.0000721,-1,-1,-1,-1
1.71E+12,128,128,-1,-1,-1,-1,15.57255325,9.194352819,24.76690606,-605.0000721,-1,-1,-1,-1
1.71E+12,128,128,-1,-1,-1,-1,15.57618038,9.195408673,24.77158905,-605.0000721,-1,-1,-1,-1
1.71E+12,128,128,-1,-1,-1,-1,15.57963768,9.196525501,24.77616318,-605.0000721,-1,-1,-1,-1
1.71E+12,128,128,-1,-1,-1,-1,15.58292306,9.197697878,24.78062094,-605.0000721,-1,-1,-1,-1
1.71E+12,128,128,-1,-1,-1,-1,15.58603518,9.198919418,24.78495459,-605.0000721,-1,-1,-1,-1
1.71E+12,128,128,-1,-1,-1,-1,15.58897319,9.200183597,24.78915678,-605.0000721,-1,-1,-1,-1
1.71E+12,128,128,-1,-1,-1,-1,15.59173659,9.201484339,24.79322093,-605.0000721,-1,-1,-1,-1
1.71E+12,128,128,-1,-1,-1,-1,15.59432506,9.202816323,24.79714138,-605.0000721,-1,-1,-1,-1
1.71E+12,128,128,-1,-1,-1,-1,15.59673859,9.204174922,24.80091352,-605.0000721,-1,-1,-1,-1
1.71E+12,128,128,-1,-1,-1,-1,15.5989778,9.205555975,24.80453378,-605.0000721,-1,-1,-1,-1
1.71E+12,128,128,-1,-1,-1,-1,15.60104391,9.206955501,24.80799941,-605.0000721,-1,-1,-1,-1
1.71E+12,128,128,-1,-1,-1,-1,15.60293862,9.208369665,24.81130828,-605.0000721,-1,-1,-1,-1
1.71E+12,128,128,-1,-1,-1,-1,15.60466385,9.209794991,24.81445884,-605.0000721,-1,-1,-1,-1
1.71E+12,128,128,-1,-1,-1,-1,15.60622162,9.211228455,24.81745008,-605.0000721,-1,-1,-1,-1
1.71E+12,128,128,-1,-1,-1,-1,15.60761385,9.212667488,24.82028134,-605.0000721,-1,-1,-1,-1
1.71E+12,128,128,-1,-1,-1,-1,15.60884234,9.214109968,24.82295231,-605.0000721,-1,-1,-1,-1
1.71E+12,128,128,-1,-1,-1,-1,15.60990873,9.215554205,24.82546294,-605.0000721,-1,-1,-1,-1
1.71E+12,128,128,-1,-1,-1,-1,15.61081463,9.216998778,24.8278134,-605.0000721,-1,-1,-1,-1
1.71E+12,128,128,-1,-1,-1,-1,15.6115616,9.21844246,24.83000406,-605.0000721,-1,-1,-1,-1
1.71E+12,128,128,-1,-1,-1,-1,15.61215123,9.219884229,24.83203546,-605.0000721,-1,-1,-1,-1
1.71E+12,128,128,-1,-1,-1,-1,15.6125852,9.221323179,24.83390838,-605.0000721,-1,-1,-1,-1
1.71E+12,128,128,-1,-1,-1,-1,15.61286539,9.222758506,24.8356239,-605.0000721,-1,-1,-1,-1
1.71E+12,128,128,-1,-1,-1,-1,15.61299391,9.22418946,24.83718337,-605.0000721,-1,-1,-1,-1
1.71E+12,128,128,-1,-1,-1,-1,15.61297312,9.225615273,24.83858839,-605.0000721,-1,-1,-1,-1
1.71E+12,128,128,-1,-1,-1,-1,15.61280566,9.227035143,24.8398408,-605.0000721,-1,-1,-1,-1
1.71E+12,128,128,-1,-1,-1,-1,15.61249437,9.228448242,24.84094261,-605.0000721,-1,-1,-1,-1
1.71E+12,128,128,-1,-1,-1,-1,15.61204237,9.229853723,24.84189609,-605.0000721,-1,-1,-1,-1
1.71E+12,128,128,-1,-1,-1,-1,15.61145298,9.231250742,24.84270373,-605.0000721,-1,-1,-1,-1
1.71E+12,128,128,-1,-1,-1,-1,15.61072981,9.232638477,24.84336829,-605.0000721,-1,-1,-1,-1
1.71E+12,128,128,-1,-1,-1,-1,15.60987664,9.234016146,24.84389279,-605.0000721,-1,-1,-1,-1
1.71E+12,128,128,-1,-1,-1,-1,15.60889747,9.235383003,24.84428047,-605.0000721,-1,-1,-1,-1
1.71E+12,128,128,-1,-1,-1,-1,15.60779646,9.236738342,24.8445348,-605.0000721,-1,-1,-1,-1
1.71E+12,128,128,-1,-1,-1,-1,15.60657795,9.238081493,24.84465944,-605.0000721,-1,-1,-1,-1
1.71E+12,128,128,-1,-1,-1,-1,15.60524642,9.239411834,24.84465826,-605.0000721,-1,-1,-1,-1
1.71E+12,128,128,-1,-1,-1,-1,15.60380655,9.240728775,24.84453532,-605.0000721,-1,-1,-1,-1
1.71E+12,128,128,-1,-1,-1,-1,15.60226314,9.242031773,24.84429491,-605.0000721,-1,-1,-1,-1
1.71E+12,128,128,-1,-1,-1,-1,15.60062114,9.243320335,24.84394147,-605.0000721,-1,-1,-1,-1
1.71E+12,128,128,-1,-1,-1,-1,15.59888564,9.244594014,24.84347965,-605.0000721,-1,-1,-1,-1
1.71E+12,128,128,-1,-1,-1,-1,15.59706184,9.245852411,24.84291425,-605.0000721,-1,-1,-1,-1
1.71E+12,128,128,-1,-1,-1,-1,15.59515504,9.247095173,24.84225021,-605.0000721,-1,-1,-1,-1
1.71E+12,128,128,-1,-1,-1,-1,15.59317063,9.24832198,24.84149261,-605.0000721,-1,-1,-1,-1
1.71E+12,128,128,-1,-1,-1,-1,15.5911141,9.249532537,24.84064663,-605.0000721,-1,-1,-1,-1
1.71E+12,128,128,-1,-1,-1,-1,15.58899099,9.250726581,24.83971757,-605.0000721,-1,-1,-1,-1
1.71E+12,128,128,-1,-1,-1,-1,15.58680693,9.251903886,24.83871082,-605.0000721,-1,-1,-1,-1
1.71E+12,128,128,-1,-1,-1,-1,15.58456758,9.253064276,24.83763186,-605.0000721,-1,-1,-1,-1
1.71E+12,128,128,-1,-1,-1,-1,15.58227863,9.254207641,24.83648627,-605.0000721,-1,-1,-1,-1
1.71E+12,128,128,-1,-1,-1,-1,15.57994576,9.255333923,24.83527969,-605.0000721,-1,-1,-1,-1
1.71E+12,128,128,-1,-1,-1,-1,15.57757471,9.2564431,24.83401781,-605.0000721,-1,-1,-1,-1
1.71E+12,128,128,-1,-1,-1,-1,15.57517115,9.257535192,24.83270634,-605.0000721,-1,-1,-1,-1
1.71E+12,128,128,-1,-1,-1,-1,15.57274079,9.258610247,24.83135104,-605.0000721,-1,-1,-1,-1
1.71E+12,128,128,-1,-1,-1,-1,15.57028928,9.259668348,24.82995763,-605.0000721,-1,-1,-1,-1
1.71E+12,128,128,-1,-1,-1,-1,15.56782224,9.260709626,24.82853187,-605.0000721,-1,-1,-1,-1
1.71E+12,128,128,-1,-1,-1,-1,15.56534527,9.261734251,24.82707952,-605.0000721,-1,-1,-1,-1
1.71E+12,128,128,-1,-1,-1,-1,15.56286388,9.262742426,24.82560631,-605.0000721,-1,-1,-1,-1
1.71E+12,128,128,-1,-1,-1,-1,15.56038353,9.263734402,24.82411793,-605.0000721,-1,-1,-1,-1
1.71E+12,128,128,-1,-1,-1,-1,15.55790958,9.264710464,24.82262004,-605.0000721,-1,-1,-1,-1
1.71E+12,128,128,-1,-1,-1,-1,15.5554473,9.265670928,24.82111823,-605.0000721,-1,-1,-1,-1
1.71E+12,128,128,-1,-1,-1,-1,15.55300185,9.266616133,24.81961798,-605.0000721,-1,-1,-1,-1
1.71E+12,128,128,-1,-1,-1,-1,15.55057829,9.267546445,24.81812474,-605.0000721,-1,-1,-1,-1
1.71E+12,128,128,-1,-1,-1,-1,15.54818155,9.268462244,24.81664379,-605.0000721,-1,-1,-1,-1
1.71E+12,128,128,-1,-1,-1,-1,15.54581644,9.269363933,24.81518037,-605.0000721,-1,-1,-1,-1
1.71E+12,128,128,-1,-1,-1,-1,15.54348763,9.270251935,24.81373957,-605.0000721,-1,-1,-1,-1
1.71E+12,128,128,-1,-1,-1,-1,15.54119965,9.271126705,24.81232636,-605.0000721,-1,-1,-1,-1
1.71E+12,128,128,-1,-1,-1,-1,15.53895687,9.271988721,24.81094559,-605.0000721,-1,-1,-1,-1
1.71E+12,128,128,-1,-1,-1,-1,15.53676347,9.272838474,24.80960194,-605.0000721,-1,-1,-1,-1
1.71E+12,128,128,-1,-1,-1,-1,15.53462348,9.273676452,24.80829993,-605.0000721,-1,-1,-1,-1
1.71E+12,128,128,-1,-1,-1,-1,15.53254074,9.274503149,24.80704389,-605.0000721,-1,-1,-1,-1
1.71E+12,128,128,-1,-1,-1,-1,15.53051892,9.275319072,24.80583799,-605.0000721,-1,-1,-1,-1
1.71E+12,128,128,-1,-1,-1,-1,15.52856148,9.276124747,24.80468622,-605.0000721,-1,-1,-1,-1
1.71E+12,128,128,-1,-1,-1,-1,15.52667171,9.276920711,24.80359242,-605.0000721,-1,-1,-1,-1
1.71E+12,128,128,-1,-1,-1,-1,15.5248527,9.27770751,24.80256021,-605.0000721,-1,-1,-1,-1
1.71E+12,128,128,-1,-1,-1,-1,15.52310736,9.278485702,24.80159306,-605.0000721,-1,-1,-1,-1
1.71E+12,128,128,-1,-1,-1,-1,15.52143836,9.279255846,24.80069421,-605.0000721,-1,-1,-1,-1
1.71E+12,128,128,-1,-1,-1,-1,15.5198482,9.280018496,24.79986669,-605.0000721,-1,-1,-1,-1
1.71E+12,128,128,-1,-1,-1,-1,15.51833914,9.280774195,24.79911334,-605.0000721,-1,-1,-1,-1
1.71E+12,128,128,-1,-1,-1,-1,15.51691326,9.281523469,24.79843673,-605.0000721,-1,-1,-1,-1
1.71E+12,128,128,-1,-1,-1,-1,15.51557244,9.282266816,24.79783926,-605.0000721,-1,-1,-1,-1
1.71E+12,128,128,-1,-1,-1,-1,15.51431836,9.283004713,24.79732307,-605.0000721,-1,-1,-1,-1
1.71E+12,128,128,-1,-1,-1,-1,15.5131525,9.283737627,24.79689013,-605.0000721,-1,-1,-1,-1
1.71E+12,128,128,-1,-1,-1,-1,15.51207617,9.284466016,24.79654218,-605.0000721,-1,-1,-1,-1
1.71E+12,128,128,-1,-1,-1,-1,15.51109045,9.285190333,24.79628078,-605.0000721,-1,-1,-1,-1
1.71E+12,128,128,-1,-1,-1,-1,15.51019625,9.285911031,24.79610728,-605.0000721,-1,-1,-1,-1
1.71E+12,128,128,-1,-1,-1,-1,15.50939427,9.286628562,24.79602283,-605.0000721,-1,-1,-1,-1
1.71E+12,128,128,-1,-1,-1,-1,15.50868501,9.28734337,24.79602838,-605.0000721,-1,-1,-1,-1
1.71E+12,128,128,-1,-1,-1,-1,15.50806878,9.288055881,24.79612466,-605.0000721,-1,-1,-1,-1
1.71E+12,128,128,-1,-1,-1,-1,15.50754575,9.288766505,24.79631225,-605.0000721,-1,-1,-1,-1
1.71E+12,128,128,-1,-1,-1,-1,15.50711588,9.289475629,24.79659151,-605.0000721,-1,-1,-1,-1
1.71E+12,128,128,-1,-1,-1,-1,15.506779,9.290183642,24.79696264,-605.0000721,-1,-1,-1,-1
1.71E+12,128,128,-1,-1,-1,-1,15.50653473,9.290890948,24.79742568,-605.0000721,-1,-1,-1,-1
1.71E+12,128,128,-1,-1,-1,-1,15.50638253,9.291597953,24.79798048,-605.0000721,-1,-1,-1,-1
1.71E+12,128,128,-1,-1,-1,-1,15.50632171,9.29230504,24.79862675,-605.0000721,-1,-1,-1,-1
1.71E+12,128,128,-1,-1,-1,-1,15.50635142,9.293012567,24.79936398,-605.0000721,-1,-1,-1,-1
1.71E+12,128,128,-1,-1,-1,-1,15.50647065,9.293720867,24.80019152,-605.0000721,-1,-1,-1,-1
1.71E+12,128,128,-1,-1,-1,-1,15.50667828,9.294430266,24.80110854,-605.0000721,-1,-1,-1,-1
1.71E+12,128,128,-1,-1,-1,-1,15.50697303,9.295141077,24.8021141,-605.0000721,-1,-1,-1,-1
1.71E+12,128,128,-1,-1,-1,-1,15.50735352,9.295853593,24.80320712,-605.0000721,-1,-1,-1,-1
1.71E+12,128,128,-1,-1,-1,-1,15.50781831,9.296568081,24.80438639,-605.0000721,-1,-1,-1,-1
1.71E+12,128,128,-1,-1,-1,-1,15.5083658,9.297284803,24.8056506,-605.0000721,-1,-1,-1,-1
1.71E+12,128,128,-1,-1,-1,-1,15.50899432,9.298004026,24.80699834,-605.0000721,-1,-1,-1,-1
1.71E+12,128,128,-1,-1,-1,-1,15.50970209,9.298726011,24.8084281,-605.0000721,-1,-1,-1,-1
1.71E+12,128,128,-1,-1,-1,-1,15.51048729,9.29945102,24.80993831,-605.0000721,-1,-1,-1,-1
1.71E+12,128,128,-1,-1,-1,-1,15.51134805,9.300179316,24.81152736,-605.0000721,-1,-1,-1,-1
1.71E+12,128,128,-1,-1,-1,-1,15.51228245,9.300911159,24.81319361,-605.0000721,-1,-1,-1,-1
1.71E+12,128,128,-1,-1,-1,-1,15.51328859,9.301646803,24.81493539,-605.0000721,-1,-1,-1,-1
1.71E+12,128,128,-1,-1,-1,-1,15.51436452,9.302386513,24.81675103,-605.0000721,-1,-1,-1,-1
1.71E+12,128,128,-1,-1,-1,-1,15.51550827,9.303130575,24.81863885,-605.0000721,-1,-1,-1,-1
1.71E+12,128,128,-1,-1,-1,-1,15.51671785,9.303879289,24.82059714,-605.0000721,-1,-1,-1,-1
1.71E+12,128,128,-1,-1,-1,-1,15.5179912,9.304632951,24.82262415,-605.0000721,-1,-1,-1,-1
1.71E+12,128,128,-1,-1,-1,-1,15.51932625,9.305391841,24.82471809,-605.0000721,-1,-1,-1,-1
1.71E+12,128,128,-1,-1,-1,-1,15.52072091,9.306156215,24.82687712,-605.0000721,-1,-1,-1,-1
1.71E+12,128,128,-1,-1,-1,-1,15.52217309,9.306926316,24.82909941,-605.0000721,-1,-1,-1,-1
1.71E+12,128,128,-1,-1,-1,-1,15.52368074,9.307702394,24.83138314,-605.0000721,-1,-1,-1,-1
1.71E+12,128,128,-1,-1,-1,-1,15.52524177,9.308484704,24.83372648,-605.0000721,-1,-1,-1,-1
1.71E+12,128,128,-1,-1,-1,-1,15.52685413,9.309273487,24.83612761,-605.0000721,-1,-1,-1,-1
1.71E+12,128,128,-1,-1,-1,-1,15.52851574,9.310068977,24.83858472,-605.0000721,-1,-1,-1,-1
1.71E+12,128,128,-1,-1,-1,-1,15.5302246,9.310871397,24.841096,-605.0000721,-1,-1,-1,-1
1.71E+12,128,128,-1,-1,-1,-1,15.53197874,9.311680946,24.84365969,-605.0000721,-1,-1,-1,-1
1.71E+12,128,128,-1,-1,-1,-1,15.53377625,9.312497773,24.84627403,-605.0000721,-1,-1,-1,-1
1.71E+12,128,128,-1,-1,-1,-1,15.53561529,9.313321996,24.84893729,-605.0000721,-1,-1,-1,-1
1.71E+12,128,128,-1,-1,-1,-1,15.53749404,9.314153731,24.85164778,-605.0000721,-1,-1,-1,-1
1.71E+12,128,128,-1,-1,-1,-1,15.53941076,9.314993088,24.85440385,-605.0000721,-1,-1,-1,-1
1.71E+12,128,128,-1,-1,-1,-1,15.54136375,9.315840166,24.85720391,-605.0000721,-1,-1,-1,-1
1.71E+12,128,128,-1,-1,-1,-1,15.54335137,9.316695056,24.86004643,-605.0000721,-1,-1,-1,-1
1.71E+12,128,128,-1,-1,-1,-1,15.54537205,9.317557822,24.86292988,-605.0000721,-1,-1,-1,-1
1.71E+12,128,128,-1,-1,-1,-1,15.54742428,9.31842851,24.86585279,-605.0000721,-1,-1,-1,-1
1.71E+12,128,128,-1,-1,-1,-1,15.54950657,9.319307138,24.86881371,-605.0000721,-1,-1,-1,-1
1.71E+12,128,128,-1,-1,-1,-1,15.55161753,9.320193708,24.87181123,-605.0000721,-1,-1,-1,-1
1.71E+12,128,128,-1,-1,-1,-1,15.55375579,9.321088208,24.874844,-605.0000721,-1,-1,-1,-1
1.71E+12,128,128,-1,-1,-1,-1,15.55592008,9.321990602,24.87791068,-605.0000721,-1,-1,-1,-1
1.71E+12,128,128,-1,-1,-1,-1,15.55810918,9.322900843,24.88101002,-605.0000721,-1,-1,-1,-1
1.71E+12,128,128,-1,-1,-1,-1,15.56032197,9.323818868,24.88414084,-605.0000721,-1,-1,-1,-1
1.71E+12,128,128,-1,-1,-1,-1,15.5625574,9.324744608,24.88730201,-605.0000721,-1,-1,-1,-1
1.71E+12,128,128,-1,-1,-1,-1,15.56481449,9.325677989,24.89049248,-605.0000721,-1,-1,-1,-1
1.71E+12,128,128,-1,-1,-1,-1,15.56709234,9.326618931,24.89371127,-605.0000721,-1,-1,-1,-1
1.71E+12,128,128,-1,-1,-1,-1,15.5693901,9.327567337,24.89695743,-605.0000721,-1,-1,-1,-1
1.71E+12,128,128,-1,-1,-1,-1,15.571707,9.328523101,24.9002301,-605.0000721,-1,-1,-1,-1
1.71E+12,128,128,-1,-1,-1,-1,15.57404235,9.329486109,24.90352846,-605.0000721,-1,-1,-1,-1
1.71E+12,128,128,-1,-1,-1,-1,15.57639552,9.330456241,24.90685176,-605.0000721,-1,-1,-1,-1
1.71E+12,128,128,-1,-1,-1,-1,15.57876594,9.331433357,24.9101993,-605.0000721,-1,-1,-1,-1
1.71E+12,128,128,-1,-1,-1,-1,15.58115316,9.332417309,24.91357047,-605.0000721,-1,-1,-1,-1
1.71E+12,128,128,-1,-1,-1,-1,15.58355674,9.33340795,24.91696469,-605.0000721,-1,-1,-1,-1
1.71E+12,128,128,-1,-1,-1,-1,15.58597636,9.334405124,24.92038148,-605.0000721,-1,-1,-1,-1
1.71E+12,128,128,-1,-1,-1,-1,15.5884117,9.335408641,24.92382034,-605.0000721,-1,-1,-1,-1
1.71E+12,128,128,-1,-1,-1,-1,15.59086256,9.336418275,24.92728083,-605.0000721,-1,-1,-1,-1
1.71E+12,128,128,-1,-1,-1,-1,15.59332874,9.33743378,24.93076252,-605.0000721,-1,-1,-1,-1
1.71E+12,128,128,-1,-1,-1,-1,15.59581014,9.338454887,24.93426502,-605.0000721,-1,-1,-1,-1
1.71E+12,128,128,-1,-1,-1,-1,15.59830668,9.339481299,24.93778798,-605.0000721,-1,-1,-1,-1
1.71E+12,128,128,-1,-1,-1,-1,15.60081835,9.340512701,24.94133106,-605.0000721,-1,-1,-1,-1
1.71E+12,128,128,-1,-1,-1,-1,15.60334521,9.341548759,24.94489396,-605.0000721,-1,-1,-1,-1
1.71E+12,128,128,-1,-1,-1,-1,15.6058873,9.34258913,24.94847643,-605.0000721,-1,-1,-1,-1
1.71E+12,128,128,-1,-1,-1,-1,15.60844472,9.343633448,24.95207817,-605.0000721,-1,-1,-1,-1
1.71E+12,128,128,-1,-1,-1,-1,15.6110176,9.344681311,24.95569891,-605.0000721,-1,-1,-1,-1
1.71E+12,128,128,-1,-1,-1,-1,15.61360609,9.345732277,24.95933836,-605.0000721,-1,-1,-1,-1
1.71E+12,128,128,-1,-1,-1,-1,15.61621036,9.34678585,24.96299621,-605.0000721,-1,-1,-1,-1
1.71E+12,128,128,-1,-1,-1,-1,15.61883065,9.347841499,24.96667215,-605.0000721,-1,-1,-1,-1
1.71E+12,128,128,-1,-1,-1,-1,15.62146717,9.34889866,24.97036583,-605.0000721,-1,-1,-1,-1
1.71E+12,128,128,-1,-1,-1,-1,15.62412016,9.349956738,24.9740769,-605.0000721,-1,-1,-1,-1
1.71E+12,128,128,-1,-1,-1,-1,15.62678988,9.351015111,24.97780499,-605.0000721,-1,-1,-1,-1
1.71E+12,128,128,-1,-1,-1,-1,15.62947659,9.352073141,24.98154973,-605.0000721,-1,-1,-1,-1
1.71E+12,128,128,-1,-1,-1,-1,15.63218053,9.353130169,24.9853107,-605.0000721,-1,-1,-1,-1
1.71E+12,128,128,-1,-1,-1,-1,15.63490195,9.354185486,24.98908744,-605.0000721,-1,-1,-1,-1
1.71E+12,128,128,-1,-1,-1,-1,15.63764113,9.355238338,24.99287947,-605.0000721,-1,-1,-1,-1
1.71E+12,128,128,-1,-1,-1,-1,15.6403983,9.356287938,24.99668624,-605.0000721,-1,-1,-1,-1
1.71E+12,128,128,-1,-1,-1,-1,15.64317373,9.357333452,25.00050718,-605.0000721,-1,-1,-1,-1
1.71E+12,128,128,-1,-1,-1,-1,15.64596767,9.358374025,25.0043417,-605.0000721,-1,-1,-1,-1
1.71E+12,128,128,-1,-1,-1,-1,15.64878035,9.359408784,25.00818913,-605.0000721,-1,-1,-1,-1
1.71E+12,128,128,-1,-1,-1,-1,15.65161198,9.360436838,25.01204882,-605.0000721,-1,-1,-1,-1
1.71E+12,128,128,-1,-1,-1,-1,15.65446276,9.361457278,25.01592004,-605.0000721,-1,-1,-1,-1
1.71E+12,128,128,-1,-1,-1,-1,15.65733284,9.362469165,25.019802,-605.0000721,-1,-1,-1,-1
1.71E+12,128,128,-1,-1,-1,-1,15.66022237,9.363471537,25.02369391,-605.0000721,-1,-1,-1,-1
1.71E+12,128,128,-1,-1,-1,-1,15.6631315,9.364463411,25.02759491,-605.0000721,-1,-1,-1,-1
1.71E+12,128,128,-1,-1,-1,-1,15.66606034,9.365443782,25.03150412,-605.0000721,-1,-1,-1,-1
1.71E+12,128,128,-1,-1,-1,-1,15.669009,9.366411642,25.03542064,-605.0000721,-1,-1,-1,-1
1.71E+12,128,128,-1,-1,-1,-1,15.67197755,9.367365995,25.03934354,-605.0000721,-1,-1,-1,-1
1.71E+12,128,128,-1,-1,-1,-1,15.67496604,9.368305842,25.04327188,-605.0000721,-1,-1,-1,-1
1.71E+12,128,128,-1,-1,-1,-1,15.6779745,9.369230188,25.04720469,-605.0000721,-1,-1,-1,-1
1.71E+12,128,128,-1,-1,-1,-1,15.68100294,9.370138057,25.05114099,-605.0000721,-1,-1,-1,-1
1.71E+12,128,128,-1,-1,-1,-1,15.68405131,9.371028479,25.05507979,-605.0000721,-1,-1,-1,-1
1.71E+12,128,128,-1,-1,-1,-1,15.68711954,9.371900497,25.05902004,-605.0000721,-1,-1,-1,-1
1.71E+12,128,128,-1,-1,-1,-1,15.69020755,9.372753148,25.0629607,-605.0000721,-1,-1,-1,-1
1.71E+12,128,128,-1,-1,-1,-1,15.69331524,9.373585463,25.0669007,-605.0000721,-1,-1,-1,-1
1.71E+12,128,128,-1,-1,-1,-1,15.69644249,9.374396477,25.07083897,-605.0000721,-1,-1,-1,-1
1.71E+12,128,128,-1,-1,-1,-1,15.69958918,9.375185251,25.07477443,-605.0000721,-1,-1,-1,-1
1.71E+12,128,128,-1,-1,-1,-1,15.70275512,9.37595088,25.078706,-605.0000721,-1,-1,-1,-1
1.71E+12,128,128,-1,-1,-1,-1,15.70594012,9.376692479,25.0826326,-605.0000721,-1,-1,-1,-1
1.71E+12,128,128,-1,-1,-1,-1,15.70914397,9.377409185,25.08655315,-605.0000721,-1,-1,-1,-1
1.71E+12,128,128,-1,-1,-1,-1,15.71236641,9.378100163,25.09046657,-605.0000721,-1,-1,-1,-1
1.71E+12,128,128,-1,-1,-1,-1,15.7156072,9.37876461,25.09437181,-605.0000721,-1,-1,-1,-1
1.71E+12,128,128,-1,-1,-1,-1,15.71886607,9.379401755,25.09826783,-605.0000721,-1,-1,-1,-1
1.71E+12,128,128,-1,-1,-1,-1,15.72214276,9.380010861,25.10215362,-605.0000721,-1,-1,-1,-1
1.71E+12,128,128,-1,-1,-1,-1,15.72543697,9.380591225,25.10602819,-605.0000721,-1,-1,-1,-1
1.71E+12,128,128,-1,-1,-1,-1,15.72874839,9.38114217,25.10989056,-605.0000721,-1,-1,-1,-1
1.71E+12,128,128,-1,-1,-1,-1,15.73207668,9.381663018,25.1137397,-605.0000721,-1,-1,-1,-1
1.71E+12,128,128,-1,-1,-1,-1,15.7354215,9.382153017,25.11757452,-605.0000721,-1,-1,-1,-1
1.71E+12,128,128,-1,-1,-1,-1,15.73878253,9.38261126,25.12139379,-605.0000721,-1,-1,-1,-1
1.71E+12,128,128,-1,-1,-1,-1,15.7421595,9.38303661,25.12519611,-605.0000721,-1,-1,-1,-1
1.71E+12,128,128,-1,-1,-1,-1,15.74555222,9.383427691,25.12897991,-605.0000721,-1,-1,-1,-1
1.71E+12,128,128,-1,-1,-1,-1,15.74896061,9.383782988,25.1327436,-605.0000721,-1,-1,-1,-1
1.71E+12,128,128,-1,-1,-1,-1,15.75238469,9.384100925,25.13648561,-605.0000721,-1,-1,-1,-1
1.71E+12,128,128,-1,-1,-1,-1,15.75582465,9.384379869,25.14020452,-605.0000721,-1,-1,-1,-1
1.71E+12,128,128,-1,-1,-1,-1,15.75928088,9.384618135,25.14389901,-605.0000721,-1,-1,-1,-1
1.71E+12,128,128,-1,-1,-1,-1,15.762754,9.384814024,25.14756802,-605.0000721,-1,-1,-1,-1
1.71E+12,128,128,-1,-1,-1,-1,15.76624492,9.38496584,25.15121076,-605.0000721,-1,-1,-1,-1
1.71E+12,128,128,-1,-1,-1,-1,15.76975482,9.385071992,25.15482681,-605.0000721,-1,-1,-1,-1
1.71E+12,128,128,-1,-1,-1,-1,15.77328512,9.385131113,25.15841624,-605.0000721,-1,-1,-1,-1
1.71E+12,128,128,-1,-1,-1,-1,15.77683758,9.38514202,25.1619796,-605.0000721,-1,-1,-1,-1
1.71E+12,128,128,-1,-1,-1,-1,15.78041426,9.385103794,25.16551805,-605.0000721,-1,-1,-1,-1
1.71E+12,128,128,-1,-1,-1,-1,15.78401715,9.38501628,25.16903343,-605.0000721,-1,-1,-1,-1
1.71E+12,128,128,-1,-1,-1,-1,15.78764795,9.384880394,25.17252835,-605.0000721,-1,-1,-1,-1
1.71E+12,128,128,-1,-1,-1,-1,15.79130793,9.384698353,25.17600628,-605.0000721,-1,-1,-1,-1
1.71E+12,128,128,-1,-1,-1,-1,15.7949978,9.384473559,25.17947136,-605.0000721,-1,-1,-1,-1
1.71E+12,128,128,-1,-1,-1,-1,15.79871797,9.384210142,25.18292811,-605.0000721,-1,-1,-1,-1
1.71E+12,128,128,-1,-1,-1,-1,15.80246859,9.383912528,25.18638112,-605.0000721,-1,-1,-1,-1
1.71E+12,128,128,-1,-1,-1,-1,15.80624962,9.383585004,25.18983463,-605.0000721,-1,-1,-1,-1
1.71E+12,128,128,-1,-1,-1,-1,15.8100609,9.383231577,25.19329248,-605.0000721,-1,-1,-1,-1
1.71E+12,128,128,-1,-1,-1,-1,15.8139021,9.382855921,25.19675802,-605.0000721,-1,-1,-1,-1
1.71E+12,128,128,-1,-1,-1,-1,15.81777261,9.382461489,25.2002341,-605.0000721,-1,-1,-1,-1
1.71E+12,128,128,-1,-1,-1,-1,15.82167148,9.382051761,25.20372324,-605.0000721,-1,-1,-1,-1
1.71E+12,128,128,-1,-1,-1,-1,15.82559749,9.381630246,25.20722773,-605.0000721,-1,-1,-1,-1
1.71E+12,128,128,-1,-1,-1,-1,15.82954937,9.381200247,25.21074962,-605.0000721,-1,-1,-1,-1
1.71E+12,128,128,-1,-1,-1,-1,15.83352596,9.380764851,25.21429081,-605.0000721,-1,-1,-1,-1
1.71E+12,128,128,-1,-1,-1,-1,15.8375262,9.380326944,25.21785314,-605.0000721,-1,-1,-1,-1
1.71E+12,128,128,-1,-1,-1,-1,15.84154924,9.37988921,25.22143845,-605.0000721,-1,-1,-1,-1
1.71E+12,128,128,-1,-1,-1,-1,15.8455945,9.379454207,25.22504871,-605.0000721,-1,-1,-1,-1
1.71E+12,128,128,-1,-1,-1,-1,15.84966169,9.379024352,25.22868605,-605.0000721,-1,-1,-1,-1
1.71E+12,128,128,-1,-1,-1,-1,15.85375084,9.378602022,25.23235286,-605.0000721,-1,-1,-1,-1
1.71E+12,128,128,-1,-1,-1,-1,15.85786225,9.378189605,25.23605185,-605.0000721,-1,-1,-1,-1
1.71E+12,128,128,-1,-1,-1,-1,15.86199645,9.377789525,25.23978597,-605.0000721,-1,-1,-1,-1
1.71E+12,128,128,-1,-1,-1,-1,15.866154,9.377404317,25.24355832,-605.0000721,-1,-1,-1,-1
1.71E+12,128,128,-1,-1,-1,-1,15.87033546,9.377036616,25.24737208,-605.0000721,-1,-1,-1,-1
1.71E+12,128,128,-1,-1,-1,-1,15.87454135,9.376689174,25.25123053,-605.0000721,-1,-1,-1,-1
1.71E+12,128,128,-1,-1,-1,-1,15.87877211,9.376364867,25.25513698,-605.0000721,-1,-1,-1,-1
1.71E+12,128,128,-1,-1,-1,-1,15.88302812,9.376066701,25.25909482,-605.0000721,-1,-1,-1,-1
1.71E+12,128,128,-1,-1,-1,-1,15.88730971,9.375797815,25.26310752,-605.0000721,-1,-1,-1,-1
1.71E+12,128,128,-1,-1,-1,-1,15.8916171,9.375561486,25.26717859,-605.0000721,-1,-1,-1,-1
1.71E+12,128,128,-1,-1,-1,-1,15.89595046,9.375361099,25.27131156,-605.0000721,-1,-1,-1,-1
1.71E+12,128,128,-1,-1,-1,-1,15.90030982,9.375200118,25.27550994,-605.0000721,-1,-1,-1,-1
1.71E+12,128,128,-1,-1,-1,-1,15.90469515,9.375082055,25.27977721,-605.0000721,-1,-1,-1,-1
1.71E+12,128,128,-1,-1,-1,-1,15.90910634,9.375010423,25.28411677,-605.0000721,-1,-1,-1,-1
1.71E+12,128,128,-1,-1,-1,-1,15.91354323,9.374988725,25.28853196,-605.0000721,-1,-1,-1,-1
1.71E+12,128,128,-1,-1,-1,-1,15.91800559,9.375020451,25.29302604,-605.0000721,-1,-1,-1,-1
1.71E+12,128,128,-1,-1,-1,-1,15.92249314,9.37510907,25.29760221,-605.0000721,-1,-1,-1,-1
1.71E+12,128,128,-1,-1,-1,-1,15.92700552,9.375258017,25.30226354,-605.0000721,-1,-1,-1,-1
1.71E+12,128,128,-1,-1,-1,-1,15.93154232,9.37547067,25.30701299,-605.0000721,-1,-1,-1,-1
1.71E+12,128,128,-1,-1,-1,-1,15.93610306,9.375750324,25.31185339,-605.0000721,-1,-1,-1,-1
1.71E+12,128,128,-1,-1,-1,-1,15.94068721,9.37610017,25.31678738,-605.0000721,-1,-1,-1,-1
1.71E+12,128,128,-1,-1,-1,-1,15.94529417,9.376523281,25.32181745,-605.0000721,-1,-1,-1,-1
1.71E+12,128,128,-1,-1,-1,-1,15.94992329,9.377022598,25.32694589,-605.0000721,-1,-1,-1,-1
1.71E+12,128,128,-1,-1,-1,-1,15.9545739,9.377600911,25.33217481,-605.0000721,-1,-1,-1,-1
1.71E+12,128,128,-1,-1,-1,-1,15.95924523,9.378260856,25.33750608,-605.0000721,-1,-1,-1,-1
1.71E+12,128,128,-1,-1,-1,-1,15.96393648,9.379004905,25.34294139,-605.0000721,-1,-1,-1,-1
1.71E+12,128,128,-1,-1,-1,-1,15.96864681,9.379835332,25.34848215,-605.0000721,-1,-1,-1,-1
1.71E+12,128,128,-1,-1,-1,-1,15.97337534,9.380754199,25.35412954,-605.0000721,-1,-1,-1,-1
1.71E+12,128,128,-1,-1,-1,-1,15.97812113,9.381763343,25.35988447,-605.0000721,-1,-1,-1,-1
1.71E+12,128,128,-1,-1,-1,-1,15.98288324,9.382864354,25.3657476,-605.0000721,-1,-1,-1,-1
1.71E+12,128,128,-1,-1,-1,-1,15.98766071,9.384058565,25.37171927,-605.0000721,-1,-1,-1,-1
1.71E+12,128,128,-1,-1,-1,-1,15.99245254,9.385347044,25.37779959,-605.0000721,-1,-1,-1,-1
1.71E+12,128,128,-1,-1,-1,-1,15.99725775,9.386730578,25.38398833,-605.0000721,-1,-1,-1,-1
1.71E+12,128,128,-1,-1,-1,-1,16.00207536,9.388209679,25.39028504,-605.0000721,-1,-1,-1,-1
1.71E+12,128,128,-1,-1,-1,-1,16.00690437,9.389784586,25.39668895,-605.0000721,-1,-1,-1,-1
1.71E+12,128,128,-1,-1,-1,-1,16.01174378,9.39145525,25.40319903,-605.0000721,-1,-1,-1,-1
1.71E+12,128,128,-1,-1,-1,-1,16.01659264,9.393221323,25.40981396,-605.0000721,-1,-1,-1,-1
1.71E+12,128,128,-1,-1,-1,-1,16.02144996,9.39508214,25.4165321,-605.0000721,-1,-1,-1,-1
1.71E+12,128,128,-1,-1,-1,-1,16.02631483,9.397036706,25.42335154,-605.0000721,-1,-1,-1,-1
1.71E+12,128,128,-1,-1,-1,-1,16.03118637,9.399083705,25.43027008,-605.0000721,-1,-1,-1,-1
1.71E+12,128,128,-1,-1,-1,-1,16.03606374,9.401221517,25.43728526,-605.0000721,-1,-1,-1,-1
1.71E+12,128,128,-1,-1,-1,-1,16.04094615,9.403448197,25.44439435,-605.0000721,-1,-1,-1,-1
1.71E+12,128,128,-1,-1,-1,-1,16.04583287,9.405761478,25.45159435,-605.0000721,-1,-1,-1,-1
1.71E+12,128,128,-1,-1,-1,-1,16.05072323,9.408158769,25.458882,-605.0000721,-1,-1,-1,-1
1.71E+12,128,128,-1,-1,-1,-1,16.0556166,9.410637157,25.46625375,-605.0000721,-1,-1,-1,-1
1.71E+12,128,128,-1,-1,-1,-1,16.06051241,9.413193402,25.47370582,-605.0000721,-1,-1,-1,-1
1.71E+12,128,128,-1,-1,-1,-1,16.06541019,9.415823952,25.48123414,-605.0000721,-1,-1,-1,-1
1.71E+12,128,128,-1,-1,-1,-1,16.0703095,9.418524956,25.48883445,-605.0000721,-1,-1,-1,-1
1.71E+12,128,128,-1,-1,-1,-1,16.07521002,9.421292268,25.49650229,-605.0000721,-1,-1,-1,-1
1.71E+12,128,128,-1,-1,-1,-1,16.08011154,9.424121449,25.50423299,-605.0000721,-1,-1,-1,-1
1.71E+12,128,128,-1,-1,-1,-1,16.08501394,9.427007793,25.51202173,-605.0000721,-1,-1,-1,-1
1.71E+12,128,128,-1,-1,-1,-1,16.08991718,9.42994635,25.51986353,-605.0000721,-1,-1,-1,-1
1.71E+12,128,128,-1,-1,-1,-1,16.09482135,9.432931934,25.52775328,-605.0000721,-1,-1,-1,-1
1.71E+12,128,128,-1,-1,-1,-1,16.09972662,9.435959117,25.53568573,-605.0000721,-1,-1,-1,-1
1.71E+12,128,128,-1,-1,-1,-1,16.10463326,9.439022254,25.54365551,-605.0000721,-1,-1,-1,-1
1.71E+12,128,128,-1,-1,-1,-1,16.10954165,9.442115495,25.55165715,-605.0000721,-1,-1,-1,-1
1.71E+12,128,128,-1,-1,-1,-1,16.11445231,9.445232782,25.55968509,-605.0000721,-1,-1,-1,-1
1.71E+12,128,128,-1,-1,-1,-1,16.11936587,9.448367867,25.56773373,-605.0000721,-1,-1,-1,-1
1.71E+12,128,128,-1,-1,-1,-1,16.12428308,9.451514342,25.57579742,-605.0000721,-1,-1,-1,-1
1.71E+12,128,128,-1,-1,-1,-1,16.1292048,9.454665665,25.58387047,-605.0000721,-1,-1,-1,-1
1.71E+12,128,128,-1,-1,-1,-1,16.13413203,9.457815186,25.59194722,-605.0000721,-1,-1,-1,-1
1.71E+12,128,128,-1,-1,-1,-1,16.13906586,9.460956159,25.60002202,-605.0000721,-1,-1,-1,-1
1.71E+12,128,128,-1,-1,-1,-1,16.14400749,9.464081733,25.60808923,-605.0000721,-1,-1,-1,-1
1.71E+12,128,128,-1,-1,-1,-1,16.14895829,9.467184963,25.61614325,-605.0000721,-1,-1,-1,-1
1.71E+12,128,128,-1,-1,-1,-1,16.15391971,9.470258837,25.62417855,-605.0000721,-1,-1,-1,-1
1.71E+12,128,128,-1,-1,-1,-1,16.15889336,9.47329632,25.63218968,-605.0000721,-1,-1,-1,-1
1.71E+12,128,128,-1,-1,-1,-1,16.16388094,9.476290375,25.64017132,-605.0000721,-1,-1,-1,-1
1.71E+12,128,128,-1,-1,-1,-1,16.16888429,9.479233992,25.64811828,-605.0000721,-1,-1,-1,-1
1.71E+12,128,128,-1,-1,-1,-1,16.17390536,9.482120204,25.65602557,-605.0000721,-1,-1,-1,-1
1.71E+12,128,128,-1,-1,-1,-1,16.17894623,9.484942108,25.66388833,-605.0000721,-1,-1,-1,-1
1.71E+12,128,128,-1,-1,-1,-1,16.18400905,9.487692897,25.67170195,-605.0000721,-1,-1,-1,-1
1.71E+12,128,128,-1,-1,-1,-1,16.1890961,9.490365891,25.67946199,-605.0000721,-1,-1,-1,-1
1.71E+12,128,128,-1,-1,-1,-1,16.19420971,9.492954537,25.68716425,-605.0000721,-1,-1,-1,-1
1.71E+12,128,128,-1,-1,-1,-1,16.19935234,9.49545241,25.69480475,-605.0000721,-1,-1,-1,-1
1.71E+12,128,128,-1,-1,-1,-1,16.20452655,9.497853232,25.70237978,-605.0000721,-1,-1,-1,-1
1.71E+12,128,128,-1,-1,-1,-1,16.20973493,9.500150899,25.70988583,-605.0000721,-1,-1,-1,-1
1.71E+12,128,128,-1,-1,-1,-1,16.21498016,9.502339511,25.71731967,-605.0000721,-1,-1,-1,-1
1.71E+12,128,128,-1,-1,-1,-1,16.22026491,9.50441339,25.7246783,-605.0000721,-1,-1,-1,-1
1.71E+12,128,128,-1,-1,-1,-1,16.22559192,9.506367097,25.73195902,-605.0000721,-1,-1,-1,-1
1.71E+12,128,128,-1,-1,-1,-1,16.23096395,9.508195433,25.73915939,-605.0000721,-1,-1,-1,-1
1.71E+12,128,128,-1,-1,-1,-1,16.23638379,9.509893441,25.74627724,-605.0000721,-1,-1,-1,-1
1.71E+12,128,128,-1,-1,-1,-1,16.24185428,9.511456433,25.75331071,-605.0000721,-1,-1,-1,-1
1.71E+12,128,128,-1,-1,-1,-1,16.24737829,9.512880012,25.76025831,-605.0000721,-1,-1,-1,-1
1.71E+12,128,128,-1,-1,-1,-1,16.25295876,9.514160097,25.76711885,-605.0000721,-1,-1,-1,-1
1.71E+12,128,128,-1,-1,-1,-1,16.2585986,9.515292957,25.77389156,-605.0000721,-1,-1,-1,-1
1.71E+12,128,128,-1,-1,-1,-1,16.26430076,9.516275225,25.78057599,-605.0000721,-1,-1,-1,-1
1.71E+12,128,128,-1,-1,-1,-1,16.27006817,9.517103886,25.78717205,-605.0000721,-1,-1,-1,-1
1.71E+12,128,128,-1,-1,-1,-1,16.27590376,9.517776286,25.79368005,-605.0000721,-1,-1,-1,-1
1.71E+12,128,128,-1,-1,-1,-1,16.28181048,9.51829014,25.80010062,-605.0000721,-1,-1,-1,-1
1.71E+12,128,128,-1,-1,-1,-1,16.28779125,9.518643537,25.80643479,-605.0000721,-1,-1,-1,-1
1.71E+12,128,128,-1,-1,-1,-1,16.29384896,9.518834943,25.81268391,-605.0000721,-1,-1,-1,-1
1.71E+12,128,128,-1,-1,-1,-1,16.29998645,9.51886323,25.81884968,-605.0000721,-1,-1,-1,-1
1.71E+12,128,128,-1,-1,-1,-1,16.30620647,9.518727702,25.82493418,-605.0000721,-1,-1,-1,-1
1.71E+12,128,128,-1,-1,-1,-1,16.31251173,9.518428086,25.83093982,-605.0000721,-1,-1,-1,-1
1.71E+12,128,128,-1,-1,-1,-1,16.31890485,9.517964507,25.83686936,-605.0000721,-1,-1,-1,-1
1.71E+12,128,128,-1,-1,-1,-1,16.3253884,9.517337486,25.84272589,-605.0000721,-1,-1,-1,-1
1.71E+12,128,128,-1,-1,-1,-1,16.33196484,9.516547942,25.84851278,-605.0000721,-1,-1,-1,-1
1.71E+12,128,128,-1,-1,-1,-1,16.33863654,9.515597189,25.85423373,-605.0000721,-1,-1,-1,-1
1.71E+12,128,128,-1,-1,-1,-1,16.34540577,9.514486933,25.8598927,-605.0000721,-1,-1,-1,-1
1.71E+12,128,128,-1,-1,-1,-1,16.35227469,9.513219273,25.86549396,-605.0000721,-1,-1,-1,-1
1.71E+12,128,128,-1,-1,-1,-1,16.35924537,9.511796697,25.87104207,-605.0000721,-1,-1,-1,-1
1.71E+12,128,128,-1,-1,-1,-1,16.36631978,9.510222073,25.87654185,-605.0000721,-1,-1,-1,-1
1.71E+12,128,128,-1,-1,-1,-1,16.37349973,9.508498637,25.88199837,-605.0000721,-1,-1,-1,-1
1.71E+12,128,128,-1,-1,-1,-1,16.38078694,9.50662998,25.88741692,-605.0000721,-1,-1,-1,-1
1.71E+12,128,128,-1,-1,-1,-1,16.38818296,9.504620025,25.89280299,-605.0000721,-1,-1,-1,-1
1.71E+12,128,128,-1,-1,-1,-1,16.39568919,9.502473019,25.89816221,-605.0000721,-1,-1,-1,-1
1.71E+12,128,128,-1,-1,-1,-1,16.40330686,9.500193523,25.90350038,-605.0000721,-1,-1,-1,-1
1.71E+12,128,128,-1,-1,-1,-1,16.41103704,9.497786389,25.90882343,-605.0000721,-1,-1,-1,-1
1.71E+12,128,128,-1,-1,-1,-1,16.41888067,9.495256748,25.91413742,-605.0000721,-1,-1,-1,-1
1.71E+12,128,128,-1,-1,-1,-1,16.42683848,9.492610004,25.91944849,-605.0000721,-1,-1,-1,-1
1.71E+12,128,128,-1,-1,-1,-1,16.43491107,9.489851813,25.92476289,-605.0000721,-1,-1,-1,-1
1.71E+12,128,128,-1,-1,-1,-1,16.44309884,9.486988071,25.93008691,-605.0000721,-1,-1,-1,-1
1.71E+12,128,128,-1,-1,-1,-1,16.45140201,9.484024883,25.9354269,-605.0000721,-1,-1,-1,-1
1.71E+12,128,128,-1,-1,-1,-1,16.45982063,9.480968549,25.94078918,-605.0000721,-1,-1,-1,-1
1.71E+12,128,128,-1,-1,-1,-1,16.46835454,9.477825546,25.94618008,-605.0000721,-1,-1,-1,-1
1.71E+12,128,128,-1,-1,-1,-1,16.47700339,9.474602494,25.95160588,-605.0000721,-1,-1,-1,-1
1.71E+12,128,128,-1,-1,-1,-1,16.48576664,9.471306139,25.95707278,-605.0000721,-1,-1,-1,-1
1.71E+12,128,128,-1,-1,-1,-1,16.49464356,9.467943342,25.96258691,-605.0000721,-1,-1,-1,-1
1.71E+12,128,128,-1,-1,-1,-1,16.50363324,9.464521064,25.9681543,-605.0000721,-1,-1,-1,-1
1.71E+12,128,128,-1,-1,-1,-1,16.51273454,9.461046342,25.97378088,-605.0000721,-1,-1,-1,-1
1.71E+12,128,128,-1,-1,-1,-1,16.52194616,9.457526273,25.97947243,-605.0000721,-1,-1,-1,-1
1.71E+12,128,128,-1,-1,-1,-1,16.53126656,9.45396799,25.98523455,-605.0000721,-1,-1,-1,-1
1.71E+12,128,128,-1,-1,-1,-1,16.54069402,9.450378628,25.99107265,-605.0000721,-1,-1,-1,-1
1.71E+12,128,128,-1,-1,-1,-1,16.5502266,9.446765311,25.99699191,-605.0000721,-1,-1,-1,-1
1.71E+12,128,128,-1,-1,-1,-1,16.55986219,9.443135113,26.0029973,-605.0000721,-1,-1,-1,-1
1.71E+12,128,128,-1,-1,-1,-1,16.56959848,9.439495043,26.00909352,-605.0000721,-1,-1,-1,-1
1.71E+12,128,128,-1,-1,-1,-1,16.579433,9.43585204,26.01528504,-605.0000721,-1,-1,-1,-1
1.71E+12,128,128,-1,-1,-1,-1,16.58936307,9.432212967,26.02157604,-605.0000721,-1,-1,-1,-1
1.71E+12,128,128,-1,-1,-1,-1,16.59938586,9.428584598,26.02797045,-605.0000721,-1,-1,-1,-1
1.71E+12,128,128,-1,-1,-1,-1,16.60949831,9.424973593,26.03447191,-605.0000721,-1,-1,-1,-1
1.71E+12,128,128,-1,-1,-1,-1,16.61969722,9.421386477,26.0410837,-605.0000721,-1,-1,-1,-1
1.71E+12,128,128,-1,-1,-1,-1,16.62997919,9.417829617,26.04780881,-605.0000721,-1,-1,-1,-1
1.71E+12,128,128,-1,-1,-1,-1,16.64034066,9.414309196,26.05464986,-605.0000721,-1,-1,-1,-1
1.71E+12,128,128,-1,-1,-1,-1,16.65077793,9.410831188,26.06160912,-605.0000721,-1,-1,-1,-1
1.71E+12,128,128,-1,-1,-1,-1,16.66128713,9.407401349,26.06868847,-605.0000721,-1,-1,-1,-1
1.71E+12,128,128,-1,-1,-1,-1,16.67186425,9.404025215,26.07588947,-605.0000721,-1,-1,-1,-1
1.71E+12,128,128,-1,-1,-1,-1,16.68250516,9.400708112,26.08321327,-605.0000721,-1,-1,-1,-1
1.71E+12,128,128,-1,-1,-1,-1,16.69320557,9.397455137,26.0906607,-605.0000721,-1,-1,-1,-1
1.71E+12,128,128,-1,-1,-1,-1,16.70396106,9.394271154,26.09823222,-605.0000721,-1,-1,-1,-1
1.71E+12,128,128,-1,-1,-1,-1,16.71476711,9.391160781,26.10592789,-605.0000721,-1,-1,-1,-1
1.71E+12,128,128,-1,-1,-1,-1,16.72561905,9.388128361,26.11374741,-605.0000721,-1,-1,-1,-1
1.71E+12,128,128,-1,-1,-1,-1,16.73651212,9.385177951,26.12169007,-605.0000721,-1,-1,-1,-1
1.71E+12,128,128,-1,-1,-1,-1,16.74744148,9.382313318,26.1297548,-605.0000721,-1,-1,-1,-1
1.71E+12,128,128,-1,-1,-1,-1,16.7584022,9.379537941,26.13794015,-605.0000721,-1,-1,-1,-1
1.71E+12,128,128,-1,-1,-1,-1,16.76938928,9.376855009,26.14624429,-605.0000721,-1,-1,-1,-1
1.71E+12,128,128,-1,-1,-1,-1,16.78039761,9.374267424,26.15466504,-605.0000721,-1,-1,-1,-1
1.71E+12,128,128,-1,-1,-1,-1,16.79142205,9.371777803,26.16319985,-605.0000721,-1,-1,-1,-1
1.71E+12,128,128,-1,-1,-1,-1,16.80245736,9.369388454,26.17184581,-605.0000721,-1,-1,-1,-1
1.71E+12,128,128,-1,-1,-1,-1,16.81349828,9.367101363,26.18059964,-605.0000721,-1,-1,-1,-1
1.71E+12,128,128,-1,-1,-1,-1,16.82453949,9.364918206,26.1894577,-605.0000721,-1,-1,-1,-1
1.71E+12,128,128,-1,-1,-1,-1,16.83557565,9.36284035,26.198416,-605.0000721,-1,-1,-1,-1
1.71E+12,128,128,-1,-1,-1,-1,16.8466014,9.360868859,26.20747026,-605.0000721,-1,-1,-1,-1
1.71E+12,128,128,-1,-1,-1,-1,16.85761136,9.359004505,26.21661586,-605.0000721,-1,-1,-1,-1
1.71E+12,128,128,-1,-1,-1,-1,16.86860015,9.357247774,26.22584792,-605.0000721,-1,-1,-1,-1
1.71E+12,128,128,-1,-1,-1,-1,16.8795624,9.355598879,26.23516128,-605.0000721,-1,-1,-1,-1
1.71E+12,128,128,-1,-1,-1,-1,16.89049274,9.354057785,26.24455053,-605.0000721,-1,-1,-1,-1
1.71E+12,128,128,-1,-1,-1,-1,16.90138581,9.352624205,26.25401001,-605.0000721,-1,-1,-1,-1
1.71E+12,128,128,-1,-1,-1,-1,16.91223625,9.351297587,26.26353384,-605.0000721,-1,-1,-1,-1
1.71E+12,128,128,-1,-1,-1,-1,16.92303878,9.350077126,26.27311591,-605.0000721,-1,-1,-1,-1
1.71E+12,128,128,-1,-1,-1,-1,16.93378814,9.348961794,26.28274993,-605.0000721,-1,-1,-1,-1
1.71E+12,128,128,-1,-1,-1,-1,16.94447912,9.347950347,26.29242947,-605.0000721,-1,-1,-1,-1
1.71E+12,128,128,-1,-1,-1,-1,16.9551066,9.347041325,26.30214792,-605.0000721,-1,-1,-1,-1
1.71E+12,128,128,-1,-1,-1,-1,16.96566549,9.346233063,26.31189855,-605.0000721,-1,-1,-1,-1
1.71E+12,128,128,-1,-1,-1,-1,16.97615078,9.345523713,26.3216745,-605.0000721,-1,-1,-1,-1
1.71E+12,128,128,-1,-1,-1,-1,16.98655756,9.344911252,26.33146881,-605.0000721,-1,-1,-1,-1
1.71E+12,128,128,-1,-1,-1,-1,16.99688097,9.34439349,26.34127446,-605.0000721,-1,-1,-1,-1
1.71E+12,128,128,-1,-1,-1,-1,17.00711629,9.343968079,26.35108437,-605.0000721,-1,-1,-1,-1
1.71E+12,128,128,-1,-1,-1,-1,17.0172589,9.343632575,26.36089148,-605.0000721,-1,-1,-1,-1
1.71E+12,128,128,-1,-1,-1,-1,17.02730429,9.343384531,26.37068882,-605.0000721,-1,-1,-1,-1
1.71E+12,128,128,-1,-1,-1,-1,17.03724804,9.343221615,26.38046965,-605.0000721,-1,-1,-1,-1
1.71E+12,128,128,-1,-1,-1,-1,17.0470858,9.343141704,26.39022751,-605.0000721,-1,-1,-1,-1
1.71E+12,128,128,-1,-1,-1,-1,17.05681327,9.343142898,26.39995617,-605.0000721,-1,-1,-1,-1
1.71E+12,128,128,-1,-1,-1,-1,17.06642617,9.343223424,26.4096496,-605.0000721,-1,-1,-1,-1
1.71E+12,128,128,-1,-1,-1,-1,17.07592025,9.343381582,26.41930184,-605.0000721,-1,-1,-1,-1
1.71E+12,128,128,-1,-1,-1,-1,17.08529125,9.343615757,26.428907,-605.0000721,-1,-1,-1,-1
1.71E+12,128,128,-1,-1,-1,-1,17.09453485,9.343924408,26.43845925,-605.0000721,-1,-1,-1,-1
1.71E+12,128,128,-1,-1,-1,-1,17.10364666,9.344306054,26.44795272,-605.0000721,-1,-1,-1,-1
1.71E+12,128,128,-1,-1,-1,-1,17.1126222,9.344759269,26.45738147,-605.0000721,-1,-1,-1,-1
1.71E+12,128,128,-1,-1,-1,-1,17.12145688,9.345282594,26.46673948,-605.0000721,-1,-1,-1,-1
1.71E+12,128,128,-1,-1,-1,-1,17.13014607,9.345874429,26.4760205,-605.0000721,-1,-1,-1,-1
1.71E+12,128,128,-1,-1,-1,-1,17.13868497,9.3465331,26.48521807,-605.0000721,-1,-1,-1,-1
1.71E+12,128,128,-1,-1,-1,-1,17.14706872,9.347256792,26.49432551,-605.0000721,-1,-1,-1,-1
1.71E+12,128,128,-1,-1,-1,-1,17.15529269,9.34804306,26.50333575,-605.0000721,-1,-1,-1,-1
1.71E+12,128,128,-1,-1,-1,-1,17.16335277,9.348888559,26.51224133,-605.0000721,-1,-1,-1,-1
1.71E+12,128,128,-1,-1,-1,-1,17.1712455,9.349788831,26.52103433,-605.0000721,-1,-1,-1,-1
1.71E+12,128,128,-1,-1,-1,-1,17.17896817,9.350738415,26.52970659,-605.0000721,-1,-1,-1,-1
1.71E+12,128,128,-1,-1,-1,-1,17.1865186,9.35173132,26.53824992,-605.0000721,-1,-1,-1,-1
1.71E+12,128,128,-1,-1,-1,-1,17.19389507,9.352761467,26.54665654,-605.0000721,-1,-1,-1,-1
1.71E+12,128,128,-1,-1,-1,-1,17.20109628,9.353823125,26.55491941,-605.0000721,-1,-1,-1,-1
1.71E+12,128,128,-1,-1,-1,-1,17.20812125,9.354911057,26.56303231,-605.0000721,-1,-1,-1,-1
1.71E+12,128,128,-1,-1,-1,-1,17.21496938,9.356020568,26.57098995,-605.0000721,-1,-1,-1,-1
1.71E+12,128,128,-1,-1,-1,-1,17.22164058,9.357147408,26.57878799,-605.0000721,-1,-1,-1,-1
1.71E+12,128,128,-1,-1,-1,-1,17.22813529,9.358287533,26.58642283,-605.0000721,-1,-1,-1,-1
1.71E+12,128,128,-1,-1,-1,-1,17.23445446,9.359437111,26.59389157,-605.0000721,-1,-1,-1,-1
1.71E+12,128,128,-1,-1,-1,-1,17.24059924,9.360592738,26.60119198,-605.0000721,-1,-1,-1,-1
1.71E+12,128,128,-1,-1,-1,-1,17.24657093,9.361751443,26.60832237,-605.0000721,-1,-1,-1,-1
1.71E+12,128,128,-1,-1,-1,-1,17.25237092,9.362910669,26.61528159,-605.0000721,-1,-1,-1,-1
1.71E+12,128,128,-1,-1,-1,-1,17.2580006,9.364068287,26.62206888,-605.0000721,-1,-1,-1,-1
1.71E+12,128,128,-1,-1,-1,-1,17.26346127,9.365222526,26.6286838,-605.0000721,-1,-1,-1,-1
1.71E+12,128,128,-1,-1,-1,-1,17.26875418,9.366371955,26.63512613,-605.0000721,-1,-1,-1,-1
1.71E+12,128,128,-1,-1,-1,-1,17.27388044,9.367515392,26.64139583,-605.0000721,-1,-1,-1,-1
1.71E+12,128,128,-1,-1,-1,-1,17.27884109,9.368651831,26.64749292,-605.0000721,-1,-1,-1,-1
1.71E+12,128,128,-1,-1,-1,-1,17.28363714,9.369780401,26.65341754,-605.0000721,-1,-1,-1,-1
1.71E+12,128,128,-1,-1,-1,-1,17.28826978,9.370900279,26.65917006,-605.0000721,-1,-1,-1,-1
1.71E+12,128,128,-1,-1,-1,-1,17.29274039,9.372010687,26.66475107,-605.0000721,-1,-1,-1,-1
1.71E+12,128,128,-1,-1,-1,-1,17.29705056,9.373110904,26.67016146,-605.0000721,-1,-1,-1,-1
1.71E+12,128,128,-1,-1,-1,-1,17.30120215,9.374200251,26.6754024,-605.0000721,-1,-1,-1,-1
1.71E+12,128,128,-1,-1,-1,-1,17.30519725,9.375278073,26.68047532,-605.0000721,-1,-1,-1,-1
1.71E+12,128,128,-1,-1,-1,-1,17.30903817,9.376343705,26.68538187,-605.0000721,-1,-1,-1,-1
1.71E+12,128,128,-1,-1,-1,-1,17.31272744,9.377396443,26.69012388,-605.0000721,-1,-1,-1,-1
1.71E+12,128,128,-1,-1,-1,-1,17.31626787,9.378435558,26.69470343,-605.0000721,-1,-1,-1,-1
1.71E+12,128,128,-1,-1,-1,-1,17.31966248,9.379460322,26.6991228,-605.0000721,-1,-1,-1,-1
1.71E+12,128,128,-1,-1,-1,-1,17.32291453,9.380470038,26.70338457,-605.0000721,-1,-1,-1,-1
1.71E+12,128,128,-1,-1,-1,-1,17.32602746,9.381464056,26.70749152,-605.0000721,-1,-1,-1,-1
1.71E+12,128,128,-1,-1,-1,-1,17.32900493,9.382441775,26.7114467,-605.0000721,-1,-1,-1,-1
1.71E+12,128,128,-1,-1,-1,-1,17.33185074,9.383402638,26.71525337,-605.0000721,-1,-1,-1,-1
1.71E+12,128,128,-1,-1,-1,-1,17.33456886,9.384346125,26.71891499,-605.0000721,-1,-1,-1,-1
1.71E+12,128,128,-1,-1,-1,-1,17.33716345,9.385271745,26.7224352,-605.0000721,-1,-1,-1,-1
1.71E+12,128,128,-1,-1,-1,-1,17.33963879,9.386179042,26.72581783,-605.0000721,-1,-1,-1,-1
1.71E+12,128,128,-1,-1,-1,-1,17.34199932,9.387067587,26.72906691,-605.0000721,-1,-1,-1,-1
1.71E+12,128,128,-1,-1,-1,-1,17.34424964,9.38793699,26.73218663,-605.0000721,-1,-1,-1,-1
1.71E+12,128,128,-1,-1,-1,-1,17.34639447,9.388786916,26.73518139,-605.0000721,-1,-1,-1,-1
1.71E+12,128,128,-1,-1,-1,-1,17.34843863,9.389617087,26.73805572,-605.0000721,-1,-1,-1,-1
1.71E+12,128,128,-1,-1,-1,-1,17.35038706,9.390427269,26.74081432,-605.0000721,-1,-1,-1,-1
1.71E+12,128,128,-1,-1,-1,-1,17.35224477,9.391217261,26.74346203,-605.0000721,-1,-1,-1,-1
1.71E+12,128,128,-1,-1,-1,-1,17.3540169,9.391986876,26.74600377,-605.0000721,-1,-1,-1,-1
1.71E+12,128,128,-1,-1,-1,-1,17.35570862,9.392735951,26.74844457,-605.0000721,-1,-1,-1,-1
1.71E+12,128,128,-1,-1,-1,-1,17.35732518,9.393464364,26.75078954,-605.0000721,-1,-1,-1,-1
1.71E+12,128,128,-1,-1,-1,-1,17.35887189,9.394172022,26.75304391,-605.0000721,-1,-1,-1,-1
1.71E+12,128,128,-1,-1,-1,-1,17.36035411,9.394858872,26.75521298,-605.0000721,-1,-1,-1,-1
1.71E+12,128,128,-1,-1,-1,-1,17.36177719,9.395524909,26.7573021,-605.0000721,-1,-1,-1,-1
1.71E+12,128,128,-1,-1,-1,-1,17.36314654,9.396170184,26.75931672,-605.0000721,-1,-1,-1,-1
1.71E+12,128,128,-1,-1,-1,-1,17.36446751,9.396794809,26.76126232,-605.0000721,-1,-1,-1,-1
1.71E+12,128,128,-1,-1,-1,-1,17.36574545,9.397398943,26.76314439,-605.0000721,-1,-1,-1,-1
1.71E+12,128,128,-1,-1,-1,-1,17.36698569,9.397982766,26.76496845,-605.0000721,-1,-1,-1,-1
1.71E+12,128,128,-1,-1,-1,-1,17.36819352,9.398546481,26.76674,-605.0000721,-1,-1,-1,-1
1.71E+12,128,128,-1,-1,-1,-1,17.3693742,9.399090327,26.76846453,-605.0000721,-1,-1,-1,-1
1.71E+12,128,128,-1,-1,-1,-1,17.37053293,9.399614579,26.77014751,-605.0000721,-1,-1,-1,-1
1.71E+12,128,128,-1,-1,-1,-1,17.37167483,9.400119557,26.77179439,-605.0000721,-1,-1,-1,-1
1.71E+12,128,128,-1,-1,-1,-1,17.37280495,9.400605617,26.77341057,-605.0000721,-1,-1,-1,-1
1.71E+12,128,128,-1,-1,-1,-1,17.37392823,9.401073143,26.77500137,-605.0000721,-1,-1,-1,-1
1.71E+12,128,128,-1,-1,-1,-1,17.37504952,9.401522551,26.77657208,-605.0000721,-1,-1,-1,-1
1.71E+12,128,128,-1,-1,-1,-1,17.37617355,9.401954289,26.77812784,-605.0000721,-1,-1,-1,-1
1.71E+12,128,128,-1,-1,-1,-1,17.37730492,9.402368834,26.77967375,-605.0000721,-1,-1,-1,-1
1.71E+12,128,128,-1,-1,-1,-1,17.3784481,9.402766697,26.7812148,-605.0000721,-1,-1,-1,-1
1.71E+12,128,128,-1,-1,-1,-1,17.37960746,9.403148429,26.78275589,-605.0000721,-1,-1,-1,-1
1.71E+12,128,128,-1,-1,-1,-1,17.3807872,9.403514617,26.78430182,-605.0000721,-1,-1,-1,-1
1.71E+12,128,128,-1,-1,-1,-1,17.38199141,9.403865872,26.78585728,-605.0000721,-1,-1,-1,-1
1.71E+12,128,128,-1,-1,-1,-1,17.38322397,9.40420284,26.78742681,-605.0000721,-1,-1,-1,-1
1.71E+12,128,128,-1,-1,-1,-1,17.38448862,9.404526198,26.78901482,-605.0000721,-1,-1,-1,-1
1.71E+12,128,128,-1,-1,-1,-1,17.3857889,9.404836641,26.79062554,-605.0000721,-1,-1,-1,-1
1.71E+12,128,128,-1,-1,-1,-1,17.38712817,9.405134864,26.79226304,-605.0000721,-1,-1,-1,-1
1.71E+12,128,128,-1,-1,-1,-1,17.38850966,9.405421555,26.79393121,-605.0000721,-1,-1,-1,-1
1.71E+12,128,128,-1,-1,-1,-1,17.38993636,9.405697405,26.79563376,-605.0000721,-1,-1,-1,-1
1.71E+12,128,128,-1,-1,-1,-1,17.39141113,9.405963119,26.79737425,-605.0000721,-1,-1,-1,-1
1.71E+12,128,128,-1,-1,-1,-1,17.39293669,9.40621943,26.79915612,-605.0000721,-1,-1,-1,-1
1.71E+12,128,128,-1,-1,-1,-1,17.39451554,9.406467113,26.80098266,-605.0000721,-1,-1,-1,-1
1.71E+12,128,128,-1,-1,-1,-1,17.39615008,9.406706972,26.80285705,-605.0000721,-1,-1,-1,-1
1.71E+12,128,128,-1,-1,-1,-1,17.39784253,9.406939831,26.80478236,-605.0000721,-1,-1,-1,-1
1.71E+12,128,128,-1,-1,-1,-1,17.39959498,9.407166517,26.80676149,-605.0000721,-1,-1,-1,-1
1.71E+12,128,128,-1,-1,-1,-1,17.4014093,9.407387854,26.80879715,-605.0000721,-1,-1,-1,-1
1.71E+12,128,128,-1,-1,-1,-1,17.40328721,9.407604659,26.81089187,-605.0000721,-1,-1,-1,-1
1.71E+12,128,128,-1,-1,-1,-1,17.40523022,9.407817755,26.81304798,-605.0000721,-1,-1,-1,-1
1.71E+12,128,128,-1,-1,-1,-1,17.40723967,9.408027982,26.81526765,-605.0000721,-1,-1,-1,-1
1.71E+12,128,128,-1,-1,-1,-1,17.40931668,9.408236188,26.81755287,-605.0000721,-1,-1,-1,-1
1.71E+12,128,128,-1,-1,-1,-1,17.41146226,9.408443234,26.81990549,-605.0000721,-1,-1,-1,-1
1.71E+12,128,128,-1,-1,-1,-1,17.4136772,9.408650002,26.82232721,-605.0000721,-1,-1,-1,-1
1.71E+12,128,128,-1,-1,-1,-1,17.41596214,9.408857377,26.82481951,-605.0000721,-1,-1,-1,-1
1.71E+12,128,128,-1,-1,-1,-1,17.41831751,9.409066226,26.82738373,-605.0000721,-1,-1,-1,-1
1.71E+12,128,128,-1,-1,-1,-1,17.42074359,9.409277391,26.83002099,-605.0000721,-1,-1,-1,-1
1.71E+12,128,128,-1,-1,-1,-1,17.42324056,9.409491668,26.83273222,-605.0000721,-1,-1,-1,-1
1.71E+12,128,128,-1,-1,-1,-1,17.42580842,9.409709787,26.83551821,-605.0000721,-1,-1,-1,-1
1.71E+12,128,128,-1,-1,-1,-1,17.4284471,9.409932438,26.83837954,-605.0000721,-1,-1,-1,-1
1.71E+12,128,128,-1,-1,-1,-1,17.43115636,9.410160307,26.84131667,-605.0000721,-1,-1,-1,-1
1.71E+12,128,128,-1,-1,-1,-1,17.43393582,9.410394072,26.8443299,-605.0000721,-1,-1,-1,-1
1.71E+12,128,128,-1,-1,-1,-1,17.43678498,9.410634392,26.84741937,-605.0000721,-1,-1,-1,-1
1.71E+12,128,128,-1,-1,-1,-1,17.43970317,9.410881891,26.85058506,-605.0000721,-1,-1,-1,-1
1.71E+12,128,128,-1,-1,-1,-1,17.44268965,9.411137152,26.8538268,-605.0000721,-1,-1,-1,-1
1.71E+12,128,128,-1,-1,-1,-1,17.44574353,9.411400733,26.85714427,-605.0000721,-1,-1,-1,-1
1.71E+12,128,128,-1,-1,-1,-1,17.44886385,9.411673167,26.86053702,-605.0000721,-1,-1,-1,-1
1.71E+12,128,128,-1,-1,-1,-1,17.45204953,9.411954976,26.86400451,-605.0000721,-1,-1,-1,-1
1.71E+12,128,128,-1,-1,-1,-1,17.45529942,9.412246679,26.8675461,-605.0000721,-1,-1,-1,-1
1.71E+12,128,128,-1,-1,-1,-1,17.45861224,9.412548791,26.87116103,-605.0000721,-1,-1,-1,-1
1.71E+12,128,128,-1,-1,-1,-1,17.46198666,9.412861802,26.87484846,-605.0000721,-1,-1,-1,-1
1.71E+12,128,128,-1,-1,-1,-1,17.46542125,9.413186164,26.87860742,-605.0000721,-1,-1,-1,-1
1.71E+12,128,128,-1,-1,-1,-1,17.46891455,9.41352227,26.88243682,-605.0000721,-1,-1,-1,-1
1.71E+12,128,128,-1,-1,-1,-1,17.47246503,9.413870468,26.88633549,-605.0000721,-1,-1,-1,-1
1.71E+12,128,128,-1,-1,-1,-1,17.4760711,9.414231074,26.89030218,-605.0000721,-1,-1,-1,-1
1.71E+12,128,128,-1,-1,-1,-1,17.47973118,9.414604375,26.89433555,-605.0000721,-1,-1,-1,-1
1.71E+12,128,128,-1,-1,-1,-1,17.4834436,9.414990634,26.89843424,-605.0000721,-1,-1,-1,-1
1.71E+12,128,128,-1,-1,-1,-1,17.48720672,9.4153901,26.90259682,-605.0000721,-1,-1,-1,-1
1.71E+12,128,128,-1,-1,-1,-1,17.49101884,9.415803002,26.90682184,-605.0000721,-1,-1,-1,-1
1.71E+12,128,128,-1,-1,-1,-1,17.49487824,9.41622953,26.91110777,-605.0000721,-1,-1,-1,-1
1.71E+12,128,128,-1,-1,-1,-1,17.49878319,9.416669815,26.91545301,-605.0000721,-1,-1,-1,-1
1.71E+12,128,128,-1,-1,-1,-1,17.50273196,9.417123942,26.9198559,-605.0000721,-1,-1,-1,-1
1.71E+12,128,128,-1,-1,-1,-1,17.50672281,9.417591956,26.92431477,-605.0000721,-1,-1,-1,-1
1.71E+12,128,128,-1,-1,-1,-1,17.51075404,9.418073861,26.9288279,-605.0000721,-1,-1,-1,-1
1.71E+12,128,128,-1,-1,-1,-1,17.51482393,9.418569618,26.93339355,-605.0000721,-1,-1,-1,-1
1.71E+12,128,128,-1,-1,-1,-1,17.51893082,9.419079137,26.93800996,-605.0000721,-1,-1,-1,-1
1.71E+12,128,128,-1,-1,-1,-1,17.52307305,9.419602294,26.94267534,-605.0000721,-1,-1,-1,-1
1.71E+12,128,128,-1,-1,-1,-1,17.52724896,9.420138927,26.94738789,-605.0000721,-1,-1,-1,-1
1.71E+12,128,128,-1,-1,-1,-1,17.53145695,9.420688822,26.95214577,-605.0000721,-1,-1,-1,-1
1.71E+12,128,128,-1,-1,-1,-1,17.53569542,9.421251705,26.95694713,-605.0000721,-1,-1,-1,-1
1.71E+12,128,128,-1,-1,-1,-1,17.53996283,9.421827248,26.96179008,-605.0000721,-1,-1,-1,-1
1.71E+12,128,128,-1,-1,-1,-1,17.54425767,9.422415076,26.96667275,-605.0000721,-1,-1,-1,-1
1.71E+12,128,128,-1,-1,-1,-1,17.54857847,9.423014776,26.97159325,-605.0000721,-1,-1,-1,-1
1.71E+12,128,128,-1,-1,-1,-1,17.55292381,9.423625885,26.9765497,-605.0000721,-1,-1,-1,-1
1.71E+12,128,128,-1,-1,-1,-1,17.5572923,9.424247902,26.9815402,-605.0000721,-1,-1,-1,-1
1.71E+12,128,128,-1,-1,-1,-1,17.5616826,9.424880291,26.98656289,-605.0000721,-1,-1,-1,-1
1.71E+12,128,128,-1,-1,-1,-1,17.5660934,9.425522475,26.99161587,-605.0000721,-1,-1,-1,-1
1.71E+12,128,128,-1,-1,-1,-1,17.57052343,9.42617383,26.99669726,-605.0000721,-1,-1,-1,-1
1.71E+12,128,128,-1,-1,-1,-1,17.57497146,9.426833687,27.00180515,-605.0000721,-1,-1,-1,-1
1.71E+12,128,128,-1,-1,-1,-1,17.57943632,9.42750133,27.00693765,-605.0000721,-1,-1,-1,-1
1.71E+12,128,128,-1,-1,-1,-1,17.58391688,9.428175999,27.01209288,-605.0000721,-1,-1,-1,-1
1.71E+12,128,128,-1,-1,-1,-1,17.58841205,9.428856895,27.01726895,-605.0000721,-1,-1,-1,-1
1.71E+12,128,128,-1,-1,-1,-1,17.59292081,9.429543195,27.022464,-605.0000721,-1,-1,-1,-1
1.71E+12,128,128,-1,-1,-1,-1,17.59744216,9.430234062,27.02767622,-605.0000721,-1,-1,-1,-1
1.71E+12,128,128,-1,-1,-1,-1,17.60197517,9.430928643,27.03290381,-605.0000721,-1,-1,-1,-1
1.71E+12,128,128,-1,-1,-1,-1,17.60651892,9.431626064,27.03814498,-605.0000721,-1,-1,-1,-1
1.71E+12,128,128,-1,-1,-1,-1,17.61107254,9.432325419,27.04339796,-605.0000721,-1,-1,-1,-1
1.71E+12,128,128,-1,-1,-1,-1,17.61563521,9.43302576,27.04866097,-605.0000721,-1,-1,-1,-1
1.71E+12,128,128,-1,-1,-1,-1,17.62020618,9.433726117,27.0539323,-605.0000721,-1,-1,-1,-1
1.71E+12,128,128,-1,-1,-1,-1,17.62478472,9.434425491,27.05921021,-605.0000721,-1,-1,-1,-1
1.71E+12,128,128,-1,-1,-1,-1,17.62937016,9.435122872,27.06449303,-605.0000721,-1,-1,-1,-1
1.71E+12,128,128,-1,-1,-1,-1,17.63396186,9.435817259,27.06977912,-605.0000721,-1,-1,-1,-1
1.71E+12,128,128,-1,-1,-1,-1,17.63855921,9.436507657,27.07506687,-605.0000721,-1,-1,-1,-1
1.71E+12,128,128,-1,-1,-1,-1,17.64316164,9.43719307,27.08035471,-605.0000721,-1,-1,-1,-1
1.71E+12,128,128,-1,-1,-1,-1,17.64776859,9.43787249,27.08564108,-605.0000721,-1,-1,-1,-1
1.71E+12,128,128,-1,-1,-1,-1,17.65237954,9.43854489,27.09092443,-605.0000721,-1,-1,-1,-1
1.71E+12,128,128,-1,-1,-1,-1,17.65699401,9.439209235,27.09620324,-605.0000721,-1,-1,-1,-1
1.71E+12,128,128,-1,-1,-1,-1,17.66161154,9.439864499,27.10147604,-605.0000721,-1,-1,-1,-1
1.71E+12,128,128,-1,-1,-1,-1,17.66623172,9.440509657,27.10674138,-605.0000721,-1,-1,-1,-1
1.71E+12,128,128,-1,-1,-1,-1,17.67085416,9.441143697,27.11199785,-605.0000721,-1,-1,-1,-1
1.71E+12,128,128,-1,-1,-1,-1,17.67547847,9.441765634,27.11724411,-605.0000721,-1,-1,-1,-1
1.71E+12,128,128,-1,-1,-1,-1,17.68010432,9.442374503,27.12247882,-605.0000721,-1,-1,-1,-1
1.71E+12,128,128,-1,-1,-1,-1,17.68473136,9.442969348,27.12770071,-605.0000721,-1,-1,-1,-1
1.71E+12,128,128,-1,-1,-1,-1,17.68935927,9.443549213,27.13290849,-605.0000721,-1,-1,-1,-1
1.71E+12,128,128,-1,-1,-1,-1,17.69398775,9.444113141,27.13810089,-605.0000721,-1,-1,-1,-1
1.71E+12,128,128,-1,-1,-1,-1,17.6986165,9.444660186,27.14327668,-605.0000721,-1,-1,-1,-1
1.71E+12,128,128,-1,-1,-1,-1,17.70324523,9.445189421,27.14843465,-605.0000721,-1,-1,-1,-1
1.71E+12,128,128,-1,-1,-1,-1,17.70787367,9.445699938,27.15357361,-605.0000721,-1,-1,-1,-1
1.71E+12,128,128,-1,-1,-1,-1,17.71250159,9.446190868,27.15869245,-605.0000721,-1,-1,-1,-1
1.71E+12,128,128,-1,-1,-1,-1,17.71712871,9.446661385,27.16379009,-605.0000721,-1,-1,-1,-1
1.71E+12,128,128,-1,-1,-1,-1,17.72175479,9.44711071,27.1688655,-605.0000721,-1,-1,-1,-1
1.71E+12,128,128,-1,-1,-1,-1,17.72637958,9.447538098,27.17391767,-605.0000721,-1,-1,-1,-1
1.71E+12,128,128,-1,-1,-1,-1,17.73100282,9.447942825,27.17894565,-605.0000721,-1,-1,-1,-1
1.71E+12,128,128,-1,-1,-1,-1,17.73562429,9.448324189,27.18394848,-605.0000721,-1,-1,-1,-1
1.71E+12,128,128,-1,-1,-1,-1,17.74024374,9.448681521,27.18892526,-605.0000721,-1,-1,-1,-1
1.71E+12,128,128,-1,-1,-1,-1,17.74486096,9.449014198,27.19387515,-605.0000721,-1,-1,-1,-1
1.71E+12,128,128,-1,-1,-1,-1,17.7494757,9.449321631,27.19879733,-605.0000721,-1,-1,-1,-1
1.71E+12,128,128,-1,-1,-1,-1,17.75408777,9.449603252,27.20369102,-605.0000721,-1,-1,-1,-1
1.71E+12,128,128,-1,-1,-1,-1,17.75869693,9.449858445,27.20855538,-605.0000721,-1,-1,-1,-1
1.71E+12,128,128,-1,-1,-1,-1,17.76330303,9.45008647,27.2133895,-605.0000721,-1,-1,-1,-1
1.71E+12,128,128,-1,-1,-1,-1,17.76790593,9.450286373,27.21819231,-605.0000721,-1,-1,-1,-1
1.71E+12,128,128,-1,-1,-1,-1,17.77250561,9.450456957,27.22296257,-605.0000721,-1,-1,-1,-1
1.71E+12,128,128,-1,-1,-1,-1,17.77710213,9.450596852,27.22769898,-605.0000721,-1,-1,-1,-1
1.71E+12,128,128,-1,-1,-1,-1,17.78169566,9.450704606,27.23240027,-605.0000721,-1,-1,-1,-1
1.71E+12,128,128,-1,-1,-1,-1,17.78628653,9.450778714,27.23706524,-605.0000721,-1,-1,-1,-1
1.71E+12,128,128,-1,-1,-1,-1,17.79087518,9.450817633,27.24169282,-605.0000721,-1,-1,-1,-1
1.71E+12,128,128,-1,-1,-1,-1,17.79546225,9.450819786,27.24628204,-605.0000721,-1,-1,-1,-1
1.71E+12,128,128,-1,-1,-1,-1,17.80004862,9.450783574,27.25083219,-605.0000721,-1,-1,-1,-1
1.71E+12,128,128,-1,-1,-1,-1,17.80463541,9.45070742,27.25534283,-605.0000721,-1,-1,-1,-1
1.71E+12,128,128,-1,-1,-1,-1,17.809224,9.450589912,27.25981391,-605.0000721,-1,-1,-1,-1
1.71E+12,128,128,-1,-1,-1,-1,17.81381599,9.450429889,27.26424588,-605.0000721,-1,-1,-1,-1
1.71E+12,128,128,-1,-1,-1,-1,17.81841332,9.450226386,27.26863971,-605.0000721,-1,-1,-1,-1
1.71E+12,128,128,-1,-1,-1,-1,17.82301817,9.449978786,27.27299695,-605.0000721,-1,-1,-1,-1
1.71E+12,128,128,-1,-1,-1,-1,17.82763261,9.44968728,27.27731989,-605.0000721,-1,-1,-1,-1
1.71E+12,128,128,-1,-1,-1,-1,17.83225841,9.449353183,27.28161159,-605.0000721,-1,-1,-1,-1
1.71E+12,128,128,-1,-1,-1,-1,17.8368968,9.448979191,27.28587599,-605.0000721,-1,-1,-1,-1
1.71E+12,128,128,-1,-1,-1,-1,17.84154839,9.448569328,27.29011772,-605.0000721,-1,-1,-1,-1
1.71E+12,128,128,-1,-1,-1,-1,17.84621341,9.448128273,27.29434168,-605.0000721,-1,-1,-1,-1
1.71E+12,128,128,-1,-1,-1,-1,17.85089187,9.447660697,27.29855257,-605.0000721,-1,-1,-1,-1
1.71E+12,128,128,-1,-1,-1,-1,17.85558368,9.447170967,27.30275465,-605.0000721,-1,-1,-1,-1
1.71E+12,128,128,-1,-1,-1,-1,17.86028862,9.446663093,27.30695172,-605.0000721,-1,-1,-1,-1
1.71E+12,128,128,-1,-1,-1,-1,17.86500624,9.446140751,27.31114699,-605.0000721,-1,-1,-1,-1
1.71E+12,128,128,-1,-1,-1,-1,17.86973577,9.445607489,27.31534326,-605.0000721,-1,-1,-1,-1
1.71E+12,128,128,-1,-1,-1,-1,17.87447614,9.445066861,27.319543,-605.0000721,-1,-1,-1,-1
1.71E+12,128,128,-1,-1,-1,-1,17.87922622,9.444522211,27.32374843,-605.0000721,-1,-1,-1,-1
1.71E+12,128,128,-1,-1,-1,-1,17.8839849,9.443976704,27.3279616,-605.0000721,-1,-1,-1,-1
1.71E+12,128,128,-1,-1,-1,-1,17.88875115,9.443433434,27.33218459,-605.0000721,-1,-1,-1,-1
1.71E+12,128,128,-1,-1,-1,-1,17.89352408,9.442895286,27.33641937,-605.0000721,-1,-1,-1,-1
1.71E+12,128,128,-1,-1,-1,-1,17.89830303,9.442364942,27.34066797,-605.0000721,-1,-1,-1,-1
1.71E+12,128,128,-1,-1,-1,-1,17.90308761,9.441844958,27.34493257,-605.0000721,-1,-1,-1,-1
1.71E+12,128,128,-1,-1,-1,-1,17.90787772,9.441337747,27.34921547,-605.0000721,-1,-1,-1,-1
1.71E+12,128,128,-1,-1,-1,-1,17.91267358,9.440845641,27.35351922,-605.0000721,-1,-1,-1,-1
1.71E+12,128,128,-1,-1,-1,-1,17.91747565,9.440370958,27.35784661,-605.0000721,-1,-1,-1,-1
1.71E+12,128,128,-1,-1,-1,-1,17.92228457,9.439916061,27.36220063,-605.0000721,-1,-1,-1,-1
1.71E+12,128,128,-1,-1,-1,-1,17.92710095,9.43948343,27.36658438,-605.0000721,-1,-1,-1,-1
1.71E+12,128,128,-1,-1,-1,-1,17.93192539,9.439075651,27.37100104,-605.0000721,-1,-1,-1,-1
1.71E+12,128,128,-1,-1,-1,-1,17.93675843,9.438695422,27.37545385,-605.0000721,-1,-1,-1,-1
1.71E+12,128,128,-1,-1,-1,-1,17.94160053,9.43834557,27.3799461,-605.0000721,-1,-1,-1,-1
1.71E+12,128,128,-1,-1,-1,-1,17.94645209,9.438029054,27.38448114,-605.0000721,-1,-1,-1,-1
1.71E+12,128,128,-1,-1,-1,-1,17.95131343,9.437748946,27.38906238,-605.0000721,-1,-1,-1,-1
1.71E+12,128,128,-1,-1,-1,-1,17.95618479,9.437508432,27.39369322,-605.0000721,-1,-1,-1,-1
1.71E+12,128,128,-1,-1,-1,-1,17.9610663,9.437310799,27.3983771,-605.0000721,-1,-1,-1,-1
1.71E+12,128,128,-1,-1,-1,-1,17.965958,9.437159397,27.40311739,-605.0000721,-1,-1,-1,-1
1.71E+12,128,128,-1,-1,-1,-1,17.97085984,9.437057601,27.40791745,-605.0000721,-1,-1,-1,-1
1.71E+12,128,128,-1,-1,-1,-1,17.97577173,9.437008778,27.4127805,-605.0000721,-1,-1,-1,-1
1.71E+12,128,128,-1,-1,-1,-1,17.98069347,9.43701627,27.41770974,-605.0000721,-1,-1,-1,-1
1.71E+12,128,128,-1,-1,-1,-1,17.98562484,9.43708338,27.42270822,-605.0000721,-1,-1,-1,-1
1.71E+12,128,128,-1,-1,-1,-1,17.99056553,9.437213363,27.4277789,-605.0000721,-1,-1,-1,-1
1.71E+12,128,128,-1,-1,-1,-1,17.99551521,9.43740943,27.43292464,-605.0000721,-1,-1,-1,-1
1.71E+12,128,128,-1,-1,-1,-1,18.00047346,9.437674725,27.43814818,-605.0000721,-1,-1,-1,-1
1.71E+12,128,128,-1,-1,-1,-1,18.0054398,9.43801231,27.44345211,-605.0000721,-1,-1,-1,-1
1.71E+12,128,128,-1,-1,-1,-1,18.0104137,9.438425148,27.44883885,-605.0000721,-1,-1,-1,-1
1.71E+12,128,128,-1,-1,-1,-1,18.01539455,9.43891607,27.45431062,-605.0000721,-1,-1,-1,-1
1.71E+12,128,128,-1,-1,-1,-1,18.02038171,9.439487749,27.45986946,-605.0000721,-1,-1,-1,-1
1.71E+12,128,128,-1,-1,-1,-1,18.02537449,9.440142694,27.46551718,-605.0000721,-1,-1,-1,-1
1.71E+12,128,128,-1,-1,-1,-1,18.03037216,9.440883245,27.4712554,-605.0000721,-1,-1,-1,-1
1.71E+12,128,128,-1,-1,-1,-1,18.03537396,9.441711569,27.47708553,-605.0000721,-1,-1,-1,-1
1.71E+12,128,128,-1,-1,-1,-1,18.0403791,9.442629651,27.48300875,-605.0000721,-1,-1,-1,-1
1.71E+12,128,128,-1,-1,-1,-1,18.04538675,9.443639258,27.48902601,-605.0000721,-1,-1,-1,-1
1.71E+12,128,128,-1,-1,-1,-1,18.05039606,9.444741921,27.49513798,-605.0000721,-1,-1,-1,-1
1.71E+12,128,128,-1,-1,-1,-1,18.05540613,9.445938911,27.50134504,-605.0000721,-1,-1,-1,-1
1.71E+12,128,128,-1,-1,-1,-1,18.06041606,9.447231237,27.5076473,-605.0000721,-1,-1,-1,-1
1.71E+12,128,128,-1,-1,-1,-1,18.06542495,9.448619638,27.51404459,-605.0000721,-1,-1,-1,-1
1.71E+12,128,128,-1,-1,-1,-1,18.07043188,9.450104565,27.52053645,-605.0000721,-1,-1,-1,-1
1.71E+12,128,128,-1,-1,-1,-1,18.07543596,9.451686187,27.52712215,-605.0000721,-1,-1,-1,-1
1.71E+12,128,128,-1,-1,-1,-1,18.0804363,9.453364392,27.53380069,-605.0000721,-1,-1,-1,-1
1.71E+12,128,128,-1,-1,-1,-1,18.08543202,9.455138782,27.5405708,-605.0000721,-1,-1,-1,-1
1.71E+12,128,128,-1,-1,-1,-1,18.09042225,9.457008656,27.54743091,-605.0000721,-1,-1,-1,-1
1.71E+12,128,128,-1,-1,-1,-1,18.09540616,9.458972984,27.55437915,-605.0000721,-1,-1,-1,-1
1.71E+12,128,128,-1,-1,-1,-1,18.10038292,9.461030407,27.56141333,-605.0000721,-1,-1,-1,-1
1.71E+12,128,128,-1,-1,-1,-1,18.10535176,9.463179239,27.568531,-605.0000721,-1,-1,-1,-1
1.71E+12,128,128,-1,-1,-1,-1,18.11031194,9.465417472,27.57572941,-605.0000721,-1,-1,-1,-1
1.71E+12,128,128,-1,-1,-1,-1,18.11526278,9.467742789,27.58300557,-605.0000721,-1,-1,-1,-1
1.71E+12,128,128,-1,-1,-1,-1,18.12020366,9.47015257,27.59035623,-605.0000721,-1,-1,-1,-1
1.71E+12,128,128,-1,-1,-1,-1,18.12513404,9.472643882,27.59777792,-605.0000721,-1,-1,-1,-1
1.71E+12,128,128,-1,-1,-1,-1,18.1300534,9.475213483,27.60526688,-605.0000721,-1,-1,-1,-1
1.71E+12,128,128,-1,-1,-1,-1,18.1349613,9.477857827,27.61281912,-605.0000721,-1,-1,-1,-1
1.71E+12,128,128,-1,-1,-1,-1,18.13985738,9.480573056,27.62043043,-605.0000721,-1,-1,-1,-1
1.71E+12,128,128,-1,-1,-1,-1,18.14474134,9.48335501,27.62809635,-605.0000721,-1,-1,-1,-1
1.71E+12,128,128,-1,-1,-1,-1,18.14961299,9.486199231,27.63581222,-605.0000721,-1,-1,-1,-1
1.71E+12,128,128,-1,-1,-1,-1,18.15447224,9.489100981,27.64357322,-605.0000721,-1,-1,-1,-1
1.71E+12,128,128,-1,-1,-1,-1,18.15931909,9.492055263,27.65137435,-605.0000721,-1,-1,-1,-1
1.71E+12,128,128,-1,-1,-1,-1,18.16415363,9.49505683,27.65921046,-605.0000721,-1,-1,-1,-1
1.71E+12,128,128,-1,-1,-1,-1,18.16897607,9.498100178,27.66707625,-605.0000721,-1,-1,-1,-1
1.71E+12,128,128,-1,-1,-1,-1,18.1737867,9.501179565,27.67496627,-605.0000721,-1,-1,-1,-1
1.71E+12,128,128,-1,-1,-1,-1,18.17858591,9.504289038,27.68287495,-605.0000721,-1,-1,-1,-1
1.71E+12,128,128,-1,-1,-1,-1,18.18337418,9.507422446,27.69079663,-605.0000721,-1,-1,-1,-1
1.71E+12,128,128,-1,-1,-1,-1,18.18815209,9.510573449,27.69872554,-605.0000721,-1,-1,-1,-1
1.71E+12,128,128,-1,-1,-1,-1,18.19292035,9.513735543,27.70665589,-605.0000721,-1,-1,-1,-1
1.71E+12,128,128,-1,-1,-1,-1,18.19767978,9.516902067,27.71458184,-605.0000721,-1,-1,-1,-1
1.71E+12,128,128,-1,-1,-1,-1,18.20243132,9.520066225,27.72249754,-605.0000721,-1,-1,-1,-1
1.71E+12,128,128,-1,-1,-1,-1,18.20717604,9.523221103,27.73039714,-605.0000721,-1,-1,-1,-1
1.71E+12,128,128,-1,-1,-1,-1,18.21191511,9.526359691,27.7382748,-605.0000721,-1,-1,-1,-1
1.71E+12,128,128,-1,-1,-1,-1,18.21664981,9.529474903,27.74612472,-605.0000721,-1,-1,-1,-1
1.71E+12,128,128,-1,-1,-1,-1,18.22138154,9.532559603,27.75394114,-605.0000721,-1,-1,-1,-1
1.71E+12,128,128,-1,-1,-1,-1,18.22611178,9.535606623,27.7617184,-605.0000721,-1,-1,-1,-1
1.71E+12,128,128,-1,-1,-1,-1,18.23084215,9.538608785,27.76945094,-605.0000721,-1,-1,-1,-1
1.71E+12,128,128,-1,-1,-1,-1,18.2355744,9.541558925,27.77713333,-605.0000721,-1,-1,-1,-1
1.71E+12,128,128,-1,-1,-1,-1,18.24031036,9.544449928,27.78476029,-605.0000721,-1,-1,-1,-1
1.71E+12,128,128,-1,-1,-1,-1,18.24505197,9.547274744,27.79232671,-605.0000721,-1,-1,-1,-1
1.71E+12,128,128,-1,-1,-1,-1,18.24980126,9.550026407,27.79982767,-605.0000721,-1,-1,-1,-1
1.71E+12,128,128,-1,-1,-1,-1,18.25456036,9.552698038,27.8072584,-605.0000721,-1,-1,-1,-1
1.71E+12,128,128,-1,-1,-1,-1,18.25933142,9.555282852,27.81461427,-605.0000721,-1,-1,-1,-1
1.71E+12,128,128,-1,-1,-1,-1,18.26411665,9.557774168,27.82189082,-605.0000721,-1,-1,-1,-1
1.71E+12,128,128,-1,-1,-1,-1,18.26891828,9.560165441,27.82908373,-605.0000721,-1,-1,-1,-1
1.71E+12,128,128,-1,-1,-1,-1,18.27373859,9.562450284,27.83618888,-605.0000721,-1,-1,-1,-1
1.71E+12,128,128,-1,-1,-1,-1,18.27857989,9.564622488,27.84320238,-605.0000721,-1,-1,-1,-1
1.71E+12,128,128,-1,-1,-1,-1,18.28344455,9.566676053,27.8501206,-605.0000721,-1,-1,-1,-1
1.71E+12,128,128,-1,-1,-1,-1,18.28833498,9.568605218,27.8569402,-605.0000721,-1,-1,-1,-1
1.71E+12,128,128,-1,-1,-1,-1,18.29325367,9.570404481,27.86365816,-605.0000721,-1,-1,-1,-1
1.71E+12,128,128,-1,-1,-1,-1,18.29820313,9.572068617,27.87027175,-605.0000721,-1,-1,-1,-1
1.71E+12,128,128,-1,-1,-1,-1,18.3031859,9.573592679,27.87677858,-605.0000721,-1,-1,-1,-1
1.71E+12,128,128,-1,-1,-1,-1,18.30820452,9.574972017,27.88317654,-605.0000721,-1,-1,-1,-1
1.71E+12,128,128,-1,-1,-1,-1,18.31326158,9.576202275,27.88946385,-605.0000721,-1,-1,-1,-1
1.71E+12,128,128,-1,-1,-1,-1,18.31835964,9.57727941,27.89563905,-605.0000721,-1,-1,-1,-1
1.71E+12,128,128,-1,-1,-1,-1,18.32350133,9.57819973,27.90170106,-605.0000721,-1,-1,-1,-1
1.71E+12,128,128,-1,-1,-1,-1,18.32868924,9.578959906,27.90764914,-605.0000721,-1,-1,-1,-1
1.71E+12,128,128,-1,-1,-1,-1,18.33392592,9.579557003,27.91348292,-605.0000721,-1,-1,-1,-1
1.71E+12,128,128,-1,-1,-1,-1,18.33921389,9.579988497,27.91920238,-605.0000721,-1,-1,-1,-1
1.71E+12,128,128,-1,-1,-1,-1,18.34455559,9.580252267,27.92480786,-605.0000721,-1,-1,-1,-1
1.71E+12,128,128,-1,-1,-1,-1,18.34995342,9.580346584,27.9303,-605.0000721,-1,-1,-1,-1
1.71E+12,128,128,-1,-1,-1,-1,18.35540973,9.580270088,27.93567982,-605.0000721,-1,-1,-1,-1
1.71E+12,128,128,-1,-1,-1,-1,18.36092682,9.580021803,27.94094863,-605.0000721,-1,-1,-1,-1
1.71E+12,128,128,-1,-1,-1,-1,18.36650695,9.579601166,27.94610811,-605.0000721,-1,-1,-1,-1
1.71E+12,128,128,-1,-1,-1,-1,18.37215226,9.57900803,27.95116029,-605.0000721,-1,-1,-1,-1
1.71E+12,128,128,-1,-1,-1,-1,18.37786486,9.57824267,27.95610753,-605.0000721,-1,-1,-1,-1
1.71E+12,128,128,-1,-1,-1,-1,18.38364675,9.577305776,27.96095252,-605.0000721,-1,-1,-1,-1
1.71E+12,128,128,-1,-1,-1,-1,18.38949982,9.576198439,27.96569826,-605.0000721,-1,-1,-1,-1
1.71E+12,128,128,-1,-1,-1,-1,18.39542588,9.574922131,27.97034801,-605.0000721,-1,-1,-1,-1
1.71E+12,128,128,-1,-1,-1,-1,18.4014266,9.573478705,27.97490531,-605.0000721,-1,-1,-1,-1
1.71E+12,128,128,-1,-1,-1,-1,18.40750358,9.571870402,27.97937398,-605.0000721,-1,-1,-1,-1
1.71E+12,128,128,-1,-1,-1,-1,18.41365826,9.570099853,27.98375812,-605.0000721,-1,-1,-1,-1
1.71E+12,128,128,-1,-1,-1,-1,18.419892,9.568170074,27.98806208,-605.0000721,-1,-1,-1,-1
1.71E+12,128,128,-1,-1,-1,-1,18.42620599,9.566084448,27.99229044,-605.0000721,-1,-1,-1,-1
1.71E+12,128,128,-1,-1,-1,-1,18.43260128,9.563846708,27.99644799,-605.0000721,-1,-1,-1,-1
1.71E+12,128,128,-1,-1,-1,-1,18.43907878,9.56146094,28.00053972,-605.0000721,-1,-1,-1,-1
1.71E+12,128,128,-1,-1,-1,-1,18.44563921,9.558931561,28.00457077,-605.0000721,-1,-1,-1,-1
1.71E+12,128,128,-1,-1,-1,-1,18.45228314,9.556263297,28.00854644,-605.0000721,-1,-1,-1,-1
1.71E+12,128,128,-1,-1,-1,-1,18.45901098,9.553461169,28.01247215,-605.0000721,-1,-1,-1,-1
1.71E+12,128,128,-1,-1,-1,-1,18.46582297,9.550530491,28.01635346,-605.0000721,-1,-1,-1,-1
1.71E+12,128,128,-1,-1,-1,-1,18.47271919,9.547476852,28.02019604,-605.0000721,-1,-1,-1,-1
1.71E+12,128,128,-1,-1,-1,-1,18.47969955,9.544306102,28.02400565,-605.0000721,-1,-1,-1,-1
1.71E+12,128,128,-1,-1,-1,-1,18.48676379,9.541024323,28.02778812,-605.0000721,-1,-1,-1,-1
1.71E+12,128,128,-1,-1,-1,-1,18.49391148,9.537637817,28.0315493,-605.0000721,-1,-1,-1,-1
1.71E+12,128,128,-1,-1,-1,-1,18.50114198,9.534153091,28.03529507,-605.0000721,-1,-1,-1,-1
1.71E+12,128,128,-1,-1,-1,-1,18.50845448,9.530576832,28.03903131,-605.0000721,-1,-1,-1,-1
1.71E+12,128,128,-1,-1,-1,-1,18.51584798,9.526915868,28.04276385,-605.0000721,-1,-1,-1,-1
1.71E+12,128,128,-1,-1,-1,-1,18.52332129,9.523177152,28.04649844,-605.0000721,-1,-1,-1,-1
1.71E+12,128,128,-1,-1,-1,-1,18.53087306,9.519367749,28.05024081,-605.0000721,-1,-1,-1,-1
1.71E+12,128,128,-1,-1,-1,-1,18.53850175,9.515494827,28.05399658,-605.0000721,-1,-1,-1,-1
1.71E+12,128,128,-1,-1,-1,-1,18.54620564,9.511565627,28.05777126,-605.0000721,-1,-1,-1,-1
1.71E+12,128,128,-1,-1,-1,-1,18.55398281,9.507587448,28.06157026,-605.0000721,-1,-1,-1,-1
1.71E+12,128,128,-1,-1,-1,-1,18.56183119,9.503567614,28.0653988,-605.0000721,-1,-1,-1,-1
1.71E+12,128,128,-1,-1,-1,-1,18.5697485,9.499513461,28.06926196,-605.0000721,-1,-1,-1,-1
1.71E+12,128,128,-1,-1,-1,-1,18.57773228,9.495432306,28.07316459,-605.0000721,-1,-1,-1,-1
1.71E+12,128,128,-1,-1,-1,-1,18.5857799,9.49133142,28.07711132,-605.0000721,-1,-1,-1,-1
1.71E+12,128,128,-1,-1,-1,-1,18.59388857,9.487218005,28.08110658,-605.0000721,-1,-1,-1,-1
1.71E+12,128,128,-1,-1,-1,-1,18.60205536,9.483099182,28.08515454,-605.0000721,-1,-1,-1,-1
1.71E+12,128,128,-1,-1,-1,-1,18.61027716,9.478981983,28.08925915,-605.0000721,-1,-1,-1,-1
1.71E+12,128,128,-1,-1,-1,-1,18.61855073,9.474873346,28.09342408,-605.0000721,-1,-1,-1,-1
1.71E+12,128,128,-1,-1,-1,-1,18.62687266,9.470780095,28.09765276,-605.0000721,-1,-1,-1,-1
1.71E+12,128,128,-1,-1,-1,-1,18.63523941,9.466708913,28.10194832,-605.0000721,-1,-1,-1,-1
1.71E+12,128,128,-1,-1,-1,-1,18.64364729,9.46266633,28.10631362,-605.0000721,-1,-1,-1,-1
1.71E+12,128,128,-1,-1,-1,-1,18.65209249,9.458658696,28.11075119,-605.0000721,-1,-1,-1,-1
1.71E+12,128,128,-1,-1,-1,-1,18.66057107,9.454692156,28.11526323,-605.0000721,-1,-1,-1,-1
1.71E+12,128,128,-1,-1,-1,-1,18.66907898,9.450772639,28.11985162,-605.0000721,-1,-1,-1,-1
1.71E+12,128,128,-1,-1,-1,-1,18.67761205,9.446905863,28.12451792,-605.0000721,-1,-1,-1,-1
1.71E+12,128,128,-1,-1,-1,-1,18.68616604,9.443097335,28.12926338,-605.0000721,-1,-1,-1,-1
1.71E+12,128,128,-1,-1,-1,-1,18.69473659,9.439352329,28.13408892,-605.0000721,-1,-1,-1,-1
1.71E+12,128,128,-1,-1,-1,-1,18.70331925,9.435675877,28.13899513,-605.0000721,-1,-1,-1,-1
1.71E+12,128,128,-1,-1,-1,-1,18.71190949,9.432072743,28.14398223,-605.0000721,-1,-1,-1,-1
1.71E+12,128,128,-1,-1,-1,-1,18.72050269,9.428547407,28.14905009,-605.0000721,-1,-1,-1,-1
1.71E+12,128,128,-1,-1,-1,-1,18.72909416,9.425104063,28.15419823,-605.0000721,-1,-1,-1,-1
1.71E+12,128,128,-1,-1,-1,-1,18.7376792,9.421746605,28.15942581,-605.0000721,-1,-1,-1,-1
1.71E+12,128,128,-1,-1,-1,-1,18.74625304,9.41847864,28.16473168,-605.0000721,-1,-1,-1,-1
1.71E+12,128,128,-1,-1,-1,-1,18.75481087,9.415303476,28.17011435,-605.0000721,-1,-1,-1,-1
1.71E+12,128,128,-1,-1,-1,-1,18.76334788,9.412224115,28.175572,-605.0000721,-1,-1,-1,-1
1.71E+12,128,128,-1,-1,-1,-1,18.77185921,9.409243248,28.18110246,-605.0000721,-1,-1,-1,-1
1.71E+12,128,128,-1,-1,-1,-1,18.78033997,9.40636326,28.18670323,-605.0000721,-1,-1,-1,-1
1.71E+12,128,128,-1,-1,-1,-1,18.78878527,9.403586224,28.19237149,-605.0000721,-1,-1,-1,-1
1.71E+12,128,128,-1,-1,-1,-1,18.79719022,9.400913906,28.19810413,-605.0000721,-1,-1,-1,-1
1.71E+12,128,128,-1,-1,-1,-1,18.80554993,9.398347764,28.20389769,-605.0000721,-1,-1,-1,-1
1.71E+12,128,128,-1,-1,-1,-1,18.81385953,9.395888962,28.20974849,-605.0000721,-1,-1,-1,-1
1.71E+12,128,128,-1,-1,-1,-1,18.82211419,9.393538372,28.21565256,-605.0000721,-1,-1,-1,-1
1.71E+12,128,128,-1,-1,-1,-1,18.83030911,9.391296581,28.22160569,-605.0000721,-1,-1,-1,-1
1.71E+12,128,128,-1,-1,-1,-1,18.83843956,9.389163905,28.22760346,-605.0000721,-1,-1,-1,-1
1.71E+12,128,128,-1,-1,-1,-1,18.84650084,9.387140382,28.23364122,-605.0000721,-1,-1,-1,-1
1.71E+12,128,128,-1,-1,-1,-1,18.8544883,9.38522579,28.23971409,-605.0000721,-1,-1,-1,-1
1.71E+12,128,128,-1,-1,-1,-1,18.86239736,9.383419653,28.24581702,-605.0000721,-1,-1,-1,-1
1.71E+12,128,128,-1,-1,-1,-1,18.87022351,9.381721231,28.25194474,-605.0000721,-1,-1,-1,-1
1.71E+12,128,128,-1,-1,-1,-1,18.87796231,9.380129524,28.25809183,-605.0000721,-1,-1,-1,-1
1.71E+12,128,128,-1,-1,-1,-1,18.88560942,9.378643299,28.26425272,-605.0000721,-1,-1,-1,-1
1.71E+12,128,128,-1,-1,-1,-1,18.8931606,9.377261117,28.27042172,-605.0000721,-1,-1,-1,-1
1.71E+12,128,128,-1,-1,-1,-1,18.90061173,9.375981344,28.27659307,-605.0000721,-1,-1,-1,-1
1.71E+12,128,128,-1,-1,-1,-1,18.90795878,9.374802163,28.28276094,-605.0000721,-1,-1,-1,-1
1.71E+12,128,128,-1,-1,-1,-1,18.91519784,9.373721589,28.28891943,-605.0000721,-1,-1,-1,-1
1.71E+12,128,128,-1,-1,-1,-1,18.92232514,9.372737486,28.29506262,-605.0000721,-1,-1,-1,-1
1.71E+12,128,128,-1,-1,-1,-1,18.92933698,9.371847607,28.30118459,-605.0000721,-1,-1,-1,-1
1.71E+12,128,128,-1,-1,-1,-1,18.93622981,9.371049662,28.30727948,-605.0000721,-1,-1,-1,-1
1.71E+12,128,128,-1,-1,-1,-1,18.94300021,9.37034141,28.31334162,-605.0000721,-1,-1,-1,-1
1.71E+12,128,128,-1,-1,-1,-1,18.94964482,9.369720762,28.31936558,-605.0000721,-1,-1,-1,-1
1.71E+12,128,128,-1,-1,-1,-1,18.95616037,9.369185828,28.3253462,-605.0000721,-1,-1,-1,-1
1.71E+12,128,128,-1,-1,-1,-1,18.96254365,9.368734866,28.33127851,-605.0000721,-1,-1,-1,-1
1.71E+12,128,128,-1,-1,-1,-1,18.96879148,9.368366211,28.33715769,-605.0000721,-1,-1,-1,-1
1.71E+12,128,128,-1,-1,-1,-1,18.97490072,9.36807826,28.34297898,-605.0000721,-1,-1,-1,-1
1.71E+12,128,128,-1,-1,-1,-1,18.98086827,9.367869483,28.34873775,-605.0000721,-1,-1,-1,-1
1.71E+12,128,128,-1,-1,-1,-1,18.98669101,9.367738405,28.35442941,-605.0000721,-1,-1,-1,-1
1.71E+12,128,128,-1,-1,-1,-1,18.99236578,9.367683616,28.36004939,-605.0000721,-1,-1,-1,-1
1.71E+12,128,128,-1,-1,-1,-1,18.99788933,9.367703747,28.36559308,-605.0000721,-1,-1,-1,-1
1.71E+12,128,128,-1,-1,-1,-1,19.00325839,9.367797342,28.37105573,-605.0000721,-1,-1,-1,-1
1.71E+12,128,128,-1,-1,-1,-1,19.00846963,9.367962776,28.37643241,-605.0000721,-1,-1,-1,-1
1.71E+12,128,128,-1,-1,-1,-1,19.01351964,9.368198337,28.38171798,-605.0000721,-1,-1,-1,-1
1.71E+12,128,128,-1,-1,-1,-1,19.01840494,9.368502103,28.38690704,-605.0000721,-1,-1,-1,-1
1.71E+12,128,128,-1,-1,-1,-1,19.02312236,9.368871487,28.39199384,-605.0000721,-1,-1,-1,-1
1.71E+12,128,128,-1,-1,-1,-1,19.02766924,9.369302932,28.39697217,-605.0000721,-1,-1,-1,-1
1.71E+12,128,128,-1,-1,-1,-1,19.03204367,9.36979166,28.40183533,-605.0000721,-1,-1,-1,-1
1.71E+12,128,128,-1,-1,-1,-1,19.03624456,9.37033172,28.40657628,-605.0000721,-1,-1,-1,-1
1.71E+12,128,128,-1,-1,-1,-1,19.04027141,9.370916688,28.4111881,-605.0000721,-1,-1,-1,-1
1.71E+12,128,128,-1,-1,-1,-1,19.04412415,9.371540353,28.4156645,-605.0000721,-1,-1,-1,-1
1.71E+12,128,128,-1,-1,-1,-1,19.04780303,9.37219702,28.42000005,-605.0000721,-1,-1,-1,-1
1.71E+12,128,128,-1,-1,-1,-1,19.05130861,9.372881562,28.42419018,-605.0000721,-1,-1,-1,-1
1.71E+12,128,128,-1,-1,-1,-1,19.05464191,9.373589405,28.42823131,-605.0000721,-1,-1,-1,-1
1.71E+12,128,128,-1,-1,-1,-1,19.05780442,9.374316338,28.43212076,-605.0000721,-1,-1,-1,-1
1.71E+12,128,128,-1,-1,-1,-1,19.06079812,9.375058381,28.4358565,-605.0000721,-1,-1,-1,-1
1.71E+12,128,128,-1,-1,-1,-1,19.06362527,9.375811976,28.43943725,-605.0000721,-1,-1,-1,-1
1.71E+12,128,128,-1,-1,-1,-1,19.06628825,9.376573955,28.44286221,-605.0000721,-1,-1,-1,-1
1.71E+12,128,128,-1,-1,-1,-1,19.06878956,9.377341434,28.446131,-605.0000721,-1,-1,-1,-1
1.71E+12,128,128,-1,-1,-1,-1,19.07113177,9.378111939,28.44924371,-605.0000721,-1,-1,-1,-1
1.71E+12,128,128,-1,-1,-1,-1,19.07331737,9.378883404,28.45220078,-605.0000721,-1,-1,-1,-1
1.71E+12,128,128,-1,-1,-1,-1,19.07534877,9.379654093,28.45500286,-605.0000721,-1,-1,-1,-1
1.71E+12,128,128,-1,-1,-1,-1,19.07722825,9.380422599,28.45765085,-605.0000721,-1,-1,-1,-1
1.71E+12,128,128,-1,-1,-1,-1,19.07895795,9.381187761,28.46014571,-605.0000721,-1,-1,-1,-1
1.71E+12,128,128,-1,-1,-1,-1,19.08053988,9.381948615,28.46248849,-605.0000721,-1,-1,-1,-1
1.71E+12,128,128,-1,-1,-1,-1,19.08197609,9.382704321,28.46468041,-605.0000721,-1,-1,-1,-1
1.71E+12,128,128,-1,-1,-1,-1,19.08326878,9.38345408,28.46672286,-605.0000721,-1,-1,-1,-1
1.71E+12,128,128,-1,-1,-1,-1,19.08442033,9.384197143,28.46861747,-605.0000721,-1,-1,-1,-1
1.71E+12,128,128,-1,-1,-1,-1,19.08543331,9.384932806,28.47036612,-605.0000721,-1,-1,-1,-1
1.71E+12,128,128,-1,-1,-1,-1,19.08631053,9.385660366,28.47197089,-605.0000721,-1,-1,-1,-1
1.71E+12,128,128,-1,-1,-1,-1,19.08705497,9.386379115,28.47343408,-605.0000721,-1,-1,-1,-1
1.71E+12,128,128,-1,-1,-1,-1,19.08766981,9.387088337,28.47475815,-605.0000721,-1,-1,-1,-1
1.71E+12,128,128,-1,-1,-1,-1,19.08815844,9.387787298,28.47594573,-605.0000721,-1,-1,-1,-1
1.71E+12,128,128,-1,-1,-1,-1,19.08852441,9.388475248,28.47699966,-605.0000721,-1,-1,-1,-1
1.71E+12,128,128,-1,-1,-1,-1,19.08877149,9.389151447,28.47792294,-605.0000721,-1,-1,-1,-1
1.71E+12,128,128,-1,-1,-1,-1,19.08890363,9.389815188,28.47871881,-605.0000721,-1,-1,-1,-1
1.71E+12,128,128,-1,-1,-1,-1,19.08892492,9.390465806,28.47939072,-605.0000721,-1,-1,-1,-1
1.71E+12,128,128,-1,-1,-1,-1,19.08883961,9.391102681,28.47994229,-605.0000721,-1,-1,-1,-1
1.71E+12,128,128,-1,-1,-1,-1,19.08865207,9.391725254,28.48037732,-605.0000721,-1,-1,-1,-1
1.71E+12,128,128,-1,-1,-1,-1,19.08836677,9.392333021,28.48069979,-605.0000721,-1,-1,-1,-1
1.71E+12,128,128,-1,-1,-1,-1,19.08798828,9.392925515,28.4809138,-605.0000721,-1,-1,-1,-1
1.71E+12,128,128,-1,-1,-1,-1,19.08752128,9.393502298,28.48102358,-605.0000721,-1,-1,-1,-1
1.71E+12,128,128,-1,-1,-1,-1,19.08697052,9.39406297,28.48103349,-605.0000721,-1,-1,-1,-1
1.71E+12,128,128,-1,-1,-1,-1,19.08634086,9.394607168,28.48094802,-605.0000721,-1,-1,-1,-1
1.71E+12,128,128,-1,-1,-1,-1,19.08563723,9.395134571,28.4807718,-605.0000721,-1,-1,-1,-1
1.71E+12,128,128,-1,-1,-1,-1,19.08486464,9.395644912,28.48050955,-605.0000721,-1,-1,-1,-1
1.71E+12,128,128,-1,-1,-1,-1,19.08402813,9.396137974,28.48016611,-605.0000721,-1,-1,-1,-1
1.71E+12,128,128,-1,-1,-1,-1,19.08313279,9.396613575,28.47974636,-605.0000721,-1,-1,-1,-1
1.71E+12,128,128,-1,-1,-1,-1,19.08218371,9.397071563,28.47925527,-605.0000721,-1,-1,-1,-1
1.71E+12,128,128,-1,-1,-1,-1,19.081186,9.397511818,28.47869782,-605.0000721,-1,-1,-1,-1
1.71E+12,128,128,-1,-1,-1,-1,19.08014479,9.397934259,28.47807904,-605.0000721,-1,-1,-1,-1
1.71E+12,128,128,-1,-1,-1,-1,19.07906519,9.398338867,28.47740405,-605.0000721,-1,-1,-1,-1
1.71E+12,128,128,-1,-1,-1,-1,19.07795231,9.398725684,28.47667799,-605.0000721,-1,-1,-1,-1
1.71E+12,128,128,-1,-1,-1,-1,19.07681123,9.399094805,28.47590603,-605.0000721,-1,-1,-1,-1
1.71E+12,128,128,-1,-1,-1,-1,19.07564701,9.39944638,28.47509339,-605.0000721,-1,-1,-1,-1
1.71E+12,128,128,-1,-1,-1,-1,19.07446464,9.399780609,28.47424525,-605.0000721,-1,-1,-1,-1
1.71E+12,128,128,-1,-1,-1,-1,19.07326906,9.400097736,28.4733668,-605.0000721,-1,-1,-1,-1
1.71E+12,128,128,-1,-1,-1,-1,19.07206511,9.400398055,28.47246316,-605.0000721,-1,-1,-1,-1
1.71E+12,128,128,-1,-1,-1,-1,19.07085753,9.400681896,28.47153942,-605.0000721,-1,-1,-1,-1
1.71E+12,128,128,-1,-1,-1,-1,19.06965098,9.400949629,28.47060061,-605.0000721,-1,-1,-1,-1
1.71E+12,128,128,-1,-1,-1,-1,19.06845003,9.401201675,28.4696517,-605.0000721,-1,-1,-1,-1
1.71E+12,128,128,-1,-1,-1,-1,19.06725912,9.401438508,28.46869763,-605.0000721,-1,-1,-1,-1
1.71E+12,128,128,-1,-1,-1,-1,19.0660826,9.401660656,28.46774326,-605.0000721,-1,-1,-1,-1
1.71E+12,128,128,-1,-1,-1,-1,19.06492467,9.401868673,28.46679334,-605.0000721,-1,-1,-1,-1
1.71E+12,128,128,-1,-1,-1,-1,19.0637894,9.402063135,28.46585253,-605.0000721,-1,-1,-1,-1
1.71E+12,128,128,-1,-1,-1,-1,19.06268069,9.402244635,28.46492532,-605.0000721,-1,-1,-1,-1
1.71E+12,128,128,-1,-1,-1,-1,19.0616023,9.402413777,28.46401607,-605.0000721,-1,-1,-1,-1
1.71E+12,128,128,-1,-1,-1,-1,19.06055783,9.402571182,28.46312901,-605.0000721,-1,-1,-1,-1
1.71E+12,128,128,-1,-1,-1,-1,19.05955072,9.40271751,28.46226823,-605.0000721,-1,-1,-1,-1
1.71E+12,128,128,-1,-1,-1,-1,19.05858431,9.402853464,28.46143777,-605.0000721,-1,-1,-1,-1
1.71E+12,128,128,-1,-1,-1,-1,19.05766176,9.402979787,28.46064155,-605.0000721,-1,-1,-1,-1
1.71E+12,128,128,-1,-1,-1,-1,19.05678613,9.40309725,28.45988338,-605.0000721,-1,-1,-1,-1
1.71E+12,128,128,-1,-1,-1,-1,19.05596034,9.403206639,28.45916698,-605.0000721,-1,-1,-1,-1
1.71E+12,128,128,-1,-1,-1,-1,19.05518713,9.403308769,28.4584959,-605.0000721,-1,-1,-1,-1
1.71E+12,128,128,-1,-1,-1,-1,19.05446909,9.403404488,28.45787358,-605.0000721,-1,-1,-1,-1
1.71E+12,128,128,-1,-1,-1,-1,19.0538086,9.40349468,28.45730328,-605.0000721,-1,-1,-1,-1
1.71E+12,128,128,-1,-1,-1,-1,19.05320787,9.403580245,28.45678811,-605.0000721,-1,-1,-1,-1
1.71E+12,128,128,-1,-1,-1,-1,19.0526689,9.403662094,28.456331,-605.0000721,-1,-1,-1,-1
1.71E+12,128,128,-1,-1,-1,-1,19.05219357,9.403741133,28.4559347,-605.0000721,-1,-1,-1,-1
1.71E+12,128,128,-1,-1,-1,-1,19.05178355,9.403818276,28.45560183,-605.0000721,-1,-1,-1,-1
1.71E+12,128,128,-1,-1,-1,-1,19.05144036,9.403894453,28.45533481,-605.0000721,-1,-1,-1,-1
1.71E+12,128,128,-1,-1,-1,-1,19.0511653,9.403970603,28.4551359,-605.0000721,-1,-1,-1,-1
1.71E+12,128,128,-1,-1,-1,-1,19.05095947,9.404047652,28.45500712,-605.0000721,-1,-1,-1,-1
1.71E+12,128,128,-1,-1,-1,-1,19.05082379,9.404126502,28.45495029,-605.0000721,-1,-1,-1,-1
1.71E+12,128,128,-1,-1,-1,-1,19.05075902,9.40420802,28.45496704,-605.0000721,-1,-1,-1,-1
1.71E+12,128,128,-1,-1,-1,-1,19.0507658,9.404293022,28.45505882,-605.0000721,-1,-1,-1,-1
1.71E+12,128,128,-1,-1,-1,-1,19.0508446,9.404382266,28.45522686,-605.0000721,-1,-1,-1,-1
1.71E+12,128,128,-1,-1,-1,-1,19.05099575,9.404476466,28.45547221,-605.0000721,-1,-1,-1,-1
1.71E+12,128,128,-1,-1,-1,-1,19.05121943,9.404576317,28.45579574,-605.0000721,-1,-1,-1,-1
1.71E+12,128,128,-1,-1,-1,-1,19.05151564,9.404682492,28.45619813,-605.0000721,-1,-1,-1,-1
1.71E+12,128,128,-1,-1,-1,-1,19.05188425,9.404795632,28.45667988,-605.0000721,-1,-1,-1,-1
1.71E+12,128,128,-1,-1,-1,-1,19.05232493,9.404916371,28.45724131,-605.0000721,-1,-1,-1,-1
1.71E+12,128,128,-1,-1,-1,-1,19.05283727,9.40504532,28.45788259,-605.0000721,-1,-1,-1,-1
1.71E+12,128,128,-1,-1,-1,-1,19.05342069,9.405183051,28.45860374,-605.0000721,-1,-1,-1,-1
1.71E+12,128,128,-1,-1,-1,-1,19.0540745,9.405330107,28.45940461,-605.0000721,-1,-1,-1,-1
1.71E+12,128,128,-1,-1,-1,-1,19.0547979,9.405487007,28.46028491,-605.0000721,-1,-1,-1,-1
1.71E+12,128,128,-1,-1,-1,-1,19.05558996,9.405654248,28.46124421,-605.0000721,-1,-1,-1,-1
1.71E+12,128,128,-1,-1,-1,-1,19.05644964,9.405832302,28.46228194,-605.0000721,-1,-1,-1,-1
1.71E+12,128,128,-1,-1,-1,-1,19.05737578,9.406021613,28.4633974,-605.0000721,-1,-1,-1,-1
1.71E+12,128,128,-1,-1,-1,-1,19.05836713,9.406222576,28.46458971,-605.0000721,-1,-1,-1,-1
1.71E+12,128,128,-1,-1,-1,-1,19.05942235,9.406435534,28.46585788,-605.0000721,-1,-1,-1,-1
1.71E+12,128,128,-1,-1,-1,-1,19.06054,9.406660788,28.46720079,-605.0000721,-1,-1,-1,-1
1.71E+12,128,128,-1,-1,-1,-1,19.06171863,9.406898584,28.46861721,-605.0000721,-1,-1,-1,-1
1.71E+12,128,128,-1,-1,-1,-1,19.06295667,9.407149124,28.4701058,-605.0000721,-1,-1,-1,-1
1.71E+12,128,128,-1,-1,-1,-1,19.06425256,9.407412569,28.47166513,-605.0000721,-1,-1,-1,-1
1.71E+12,128,128,-1,-1,-1,-1,19.06560464,9.407689047,28.47329369,-605.0000721,-1,-1,-1,-1
1.71E+12,128,128,-1,-1,-1,-1,19.06701122,9.407978643,28.47498986,-605.0000721,-1,-1,-1,-1
1.71E+12,128,128,-1,-1,-1,-1,19.06847056,9.408281397,28.47675195,-605.0000721,-1,-1,-1,-1
1.71E+12,128,128,-1,-1,-1,-1,19.06998087,9.408597302,28.47857817,-605.0000721,-1,-1,-1,-1
1.71E+12,128,128,-1,-1,-1,-1,19.07154036,9.408926303,28.48046666,-605.0000721,-1,-1,-1,-1
1.71E+12,128,128,-1,-1,-1,-1,19.07314719,9.409268297,28.48241549,-605.0000721,-1,-1,-1,-1
1.71E+12,128,128,-1,-1,-1,-1,19.07479954,9.409623129,28.48442267,-605.0000721,-1,-1,-1,-1
1.71E+12,128,128,-1,-1,-1,-1,19.07649558,9.409990602,28.48648618,-605.0000721,-1,-1,-1,-1
1.71E+12,128,128,-1,-1,-1,-1,19.07823349,9.410370485,28.48860398,-605.0000721,-1,-1,-1,-1
1.71E+12,128,128,-1,-1,-1,-1,19.08001144,9.410762515,28.49077396,-605.0000721,-1,-1,-1,-1
1.71E+12,128,128,-1,-1,-1,-1,19.08182763,9.411166378,28.49299401,-605.0000721,-1,-1,-1,-1
1.71E+12,128,128,-1,-1,-1,-1,19.08368023,9.411581702,28.49526193,-605.0000721,-1,-1,-1,-1
1.71E+12,128,128,-1,-1,-1,-1,19.08556745,9.412008053,28.4975755,-605.0000721,-1,-1,-1,-1
1.71E+12,128,128,-1,-1,-1,-1,19.0874875,9.412444943,28.49993245,-605.0000721,-1,-1,-1,-1
1.71E+12,128,128,-1,-1,-1,-1,19.08943864,9.412891841,28.50233048,-605.0000721,-1,-1,-1,-1
1.71E+12,128,128,-1,-1,-1,-1,19.09141915,9.413348153,28.5047673,-605.0000721,-1,-1,-1,-1
1.71E+12,128,128,-1,-1,-1,-1,19.09342738,9.413813231,28.50724061,-605.0000721,-1,-1,-1,-1
1.71E+12,128,128,-1,-1,-1,-1,19.0954617,9.414286396,28.5097481,-605.0000721,-1,-1,-1,-1
1.71E+12,128,128,-1,-1,-1,-1,19.09752054,9.414766927,28.51228747,-605.0000721,-1,-1,-1,-1
1.71E+12,128,128,-1,-1,-1,-1,19.09960233,9.415254066,28.5148564,-605.0000721,-1,-1,-1,-1
1.71E+12,128,128,-1,-1,-1,-1,19.10170555,9.415747005,28.51745255,-605.0000721,-1,-1,-1,-1
1.71E+12,128,128,-1,-1,-1,-1,19.10382872,9.416244893,28.52007361,-605.0000721,-1,-1,-1,-1
1.71E+12,128,128,-1,-1,-1,-1,19.10597041,9.416746834,28.52271724,-605.0000721,-1,-1,-1,-1
1.71E+12,128,128,-1,-1,-1,-1,19.10812924,9.417251892,28.52538113,-605.0000721,-1,-1,-1,-1
1.71E+12,128,128,-1,-1,-1,-1,19.1103039,9.417759102,28.528063,-605.0000721,-1,-1,-1,-1
1.71E+12,128,128,-1,-1,-1,-1,19.11249312,9.418267459,28.53076058,-605.0000721,-1,-1,-1,-1
1.71E+12,128,128,-1,-1,-1,-1,19.1146957,9.418775931,28.53347163,-605.0000721,-1,-1,-1,-1
1.71E+12,128,128,-1,-1,-1,-1,19.11691047,9.419283457,28.53619392,-605.0000721,-1,-1,-1,-1
1.71E+12,128,128,-1,-1,-1,-1,19.11913631,9.419788948,28.53892526,-605.0000721,-1,-1,-1,-1
1.71E+12,128,128,-1,-1,-1,-1,19.12137216,9.420291288,28.54166345,-605.0000721,-1,-1,-1,-1
1.71E+12,128,128,-1,-1,-1,-1,19.123617,9.420789334,28.54440634,-605.0000721,-1,-1,-1,-1
1.71E+12,128,128,-1,-1,-1,-1,19.12586986,9.421281922,28.54715179,-605.0000721,-1,-1,-1,-1
1.71E+12,128,128,-1,-1,-1,-1,19.12812984,9.421767888,28.54989773,-605.0000721,-1,-1,-1,-1
1.71E+12,128,128,-1,-1,-1,-1,19.13039609,9.422246067,28.55264216,-605.0000721,-1,-1,-1,-1
1.71E+12,128,128,-1,-1,-1,-1,19.13266781,9.4227153,28.55538311,-605.0000721,-1,-1,-1,-1
1.71E+12,128,128,-1,-1,-1,-1,19.13494427,9.423174424,28.55811869,-605.0000721,-1,-1,-1,-1
1.71E+12,128,128,-1,-1,-1,-1,19.13722475,9.423622286,28.56084703,-605.0000721,-1,-1,-1,-1
1.71E+12,128,128,-1,-1,-1,-1,19.1395086,9.424057728,28.56356633,-605.0000721,-1,-1,-1,-1
1.71E+12,128,128,-1,-1,-1,-1,19.14179523,9.424479595,28.56627482,-605.0000721,-1,-1,-1,-1
1.71E+12,128,128,-1,-1,-1,-1,19.14408406,9.424886742,28.56897081,-605.0000721,-1,-1,-1,-1
1.71E+12,128,128,-1,-1,-1,-1,19.14637463,9.425278028,28.57165266,-605.0000721,-1,-1,-1,-1
1.71E+12,128,128,-1,-1,-1,-1,19.14866649,9.425652343,28.57431883,-605.0000721,-1,-1,-1,-1
1.71E+12,128,128,-1,-1,-1,-1,19.15095926,9.426008612,28.57696787,-605.0000721,-1,-1,-1,-1
