Shimmer_89F4_TimestampSync_Unix_CAL,Shimmer_89F4_ECG_EMG_Status1_LPF_CAL,Shimmer_89F4_ECG_EMG_Status2_LPF_CAL,Shimmer_89F4_ECG_IBI_LA_RA_LPF_CAL,Shimmer_89F4_ECG_IBI_LL_LA_LPF_CAL,Shimmer_89F4_ECG_IBI_LL_RA_LPF_CAL,Shimmer_89F4_ECG_IBI_Vx_RL_LPF_CAL,Shimmer_89F4_ECG_LA_RA_24BIT_LPF_CAL,Shimmer_89F4_ECG_LL_LA_24BIT_LPF_CAL,Shimmer_89F4_ECG_LL_RA_24BIT_LPF_CAL,Shimmer_89F4_ECG_Vx_RL_24BIT_LPF_CAL,Shimmer_89F4_ECGtoHR_LA_RA_LPF_CAL,Shimmer_89F4_ECGtoHR_LL_LA_LPF_CAL,Shimmer_89F4_ECGtoHR_LL_RA_LPF_CAL,Shimmer_89F4_ECGtoHR_Vx_RL_LPF_CAL
1.71E+12,128,128,-1,-1,-1,-1,-4.097662461,-34.07898415,-38.17664661,-16.05052424,-1,-1,-1,-1
1.71E+12,128,128,-1,-1,-1,-1,-4.097662461,-34.07898415,-38.17664661,-16.05052424,-1,-1,-1,-1
1.71E+12,128,128,-1,-1,-1,-1,-4.097662461,-34.07898415,-38.17664661,-16.05052423,-1,-1,-1,-1
1.71E+12,128,128,-1,-1,-1,-1,-4.097662468,-34.0789841,-38.17664656,-16.05052413,-1,-1,-1,-1
1.71E+12,128,128,-1,-1,-1,-1,-4.097662487,-34.07898388,-38.17664637,-16.05052394,-1,-1,-1,-1
1.71E+12,128,128,-1,-1,-1,-1,-4.097662512,-34.07898331,-38.17664582,-16.05052362,-1,-1,-1,-1
1.71E+12,128,128,-1,-1,-1,-1,-4.097662531,-34.07898216,-38.17664469,-16.05052318,-1,-1,-1,-1
1.71E+12,128,128,-1,-1,-1,-1,-4.097662525,-34.07898028,-38.17664281,-16.05052259,-1,-1,-1,-1
1.71E+12,128,128,-1,-1,-1,-1,-4.097662468,-34.07897759,-38.17664006,-16.05052183,-1,-1,-1,-1
1.71E+12,128,128,-1,-1,-1,-1,-4.097662324,-34.07897408,-38.17663641,-16.05052094,-1,-1,-1,-1
1.71E+12,128,128,-1,-1,-1,-1,-4.097662063,-34.07896974,-38.1766318,-16.05051991,-1,-1,-1,-1
1.71E+12,128,128,-1,-1,-1,-1,-4.097661649,-34.0789645,-38.17662615,-16.05051873,-1,-1,-1,-1
1.71E+12,128,128,-1,-1,-1,-1,-4.097661033,-34.07895823,-38.17661927,-16.05051744,-1,-1,-1,-1
1.71E+12,128,128,-1,-1,-1,-1,-4.097660166,-34.07895069,-38.17661086,-16.05051608,-1,-1,-1,-1
1.71E+12,128,128,-1,-1,-1,-1,-4.097658991,-34.07894157,-38.17660057,-16.05051466,-1,-1,-1,-1
1.71E+12,128,128,-1,-1,-1,-1,-4.097657453,-34.0789306,-38.17658806,-16.05051322,-1,-1,-1,-1
1.71E+12,128,128,-1,-1,-1,-1,-4.097655498,-34.07891756,-38.17657306,-16.05051179,-1,-1,-1,-1
1.71E+12,128,128,-1,-1,-1,-1,-4.097653063,-34.0789023,-38.17655536,-16.05051039,-1,-1,-1,-1
1.71E+12,128,128,-1,-1,-1,-1,-4.097650081,-34.0788847,-38.17653478,-16.05050907,-1,-1,-1,-1
1.71E+12,128,128,-1,-1,-1,-1,-4.097646488,-34.07886463,-38.17651112,-16.05050792,-1,-1,-1,-1
1.71E+12,128,128,-1,-1,-1,-1,-4.097642216,-34.07884192,-38.17648414,-16.05050699,-1,-1,-1,-1
1.71E+12,128,128,-1,-1,-1,-1,-4.097637201,-34.07881625,-38.17645346,-16.05050642,-1,-1,-1,-1
1.71E+12,128,128,-1,-1,-1,-1,-4.097631382,-34.07878722,-38.1764186,-16.05050631,-1,-1,-1,-1
1.71E+12,128,128,-1,-1,-1,-1,-4.097624695,-34.07875435,-38.17637904,-16.05050674,-1,-1,-1,-1
1.71E+12,128,128,-1,-1,-1,-1,-4.097617069,-34.07871721,-38.17633428,-16.05050784,-1,-1,-1,-1
1.71E+12,128,128,-1,-1,-1,-1,-4.097608415,-34.07867545,-38.17628387,-16.05050975,-1,-1,-1,-1
1.71E+12,128,128,-1,-1,-1,-1,-4.097598636,-34.07862876,-38.1762274,-16.05051265,-1,-1,-1,-1
1.71E+12,128,128,-1,-1,-1,-1,-4.097587626,-34.07857685,-38.17616448,-16.05051671,-1,-1,-1,-1
1.71E+12,128,128,-1,-1,-1,-1,-4.097575282,-34.07851939,-38.17609467,-16.05052209,-1,-1,-1,-1
1.71E+12,128,128,-1,-1,-1,-1,-4.097561496,-34.07845595,-38.17601745,-16.05052899,-1,-1,-1,-1
1.71E+12,128,128,-1,-1,-1,-1,-4.097546159,-34.07838601,-38.17593217,-16.05053757,-1,-1,-1,-1
1.71E+12,128,128,-1,-1,-1,-1,-4.097529155,-34.07830895,-38.1758381,-16.05054803,-1,-1,-1,-1
1.71E+12,128,128,-1,-1,-1,-1,-4.097510367,-34.07822416,-38.17573453,-16.05056062,-1,-1,-1,-1
1.71E+12,128,128,-1,-1,-1,-1,-4.097489683,-34.0781311,-38.17562078,-16.05057561,-1,-1,-1,-1
1.71E+12,128,128,-1,-1,-1,-1,-4.097466988,-34.07802928,-38.17549627,-16.05059328,-1,-1,-1,-1
1.71E+12,128,128,-1,-1,-1,-1,-4.097442167,-34.07791828,-38.17536045,-16.05061393,-1,-1,-1,-1
1.71E+12,128,128,-1,-1,-1,-1,-4.097415102,-34.07779769,-38.17521279,-16.05063793,-1,-1,-1,-1
1.71E+12,128,128,-1,-1,-1,-1,-4.09738568,-34.077667,-38.17505268,-16.05066569,-1,-1,-1,-1
1.71E+12,128,128,-1,-1,-1,-1,-4.09735379,-34.07752562,-38.17487941,-16.05069761,-1,-1,-1,-1
1.71E+12,128,128,-1,-1,-1,-1,-4.097319329,-34.07737284,-38.17469217,-16.05073413,-1,-1,-1,-1
1.71E+12,128,128,-1,-1,-1,-1,-4.097282202,-34.07720794,-38.17449014,-16.05077572,-1,-1,-1,-1
1.71E+12,128,128,-1,-1,-1,-1,-4.097242319,-34.07703027,-38.17427259,-16.05082282,-1,-1,-1,-1
1.71E+12,128,128,-1,-1,-1,-1,-4.09719959,-34.07683926,-38.17403885,-16.05087593,-1,-1,-1,-1
1.71E+12,128,128,-1,-1,-1,-1,-4.097153927,-34.07663442,-38.17378835,-16.0509356,-1,-1,-1,-1
1.71E+12,128,128,-1,-1,-1,-1,-4.097105247,-34.07641528,-38.17352053,-16.05100235,-1,-1,-1,-1
1.71E+12,128,128,-1,-1,-1,-1,-4.097053484,-34.07618135,-38.17323483,-16.0510767,-1,-1,-1,-1
1.71E+12,128,128,-1,-1,-1,-1,-4.096998579,-34.07593209,-38.17293067,-16.05115923,-1,-1,-1,-1
1.71E+12,128,128,-1,-1,-1,-1,-4.096940483,-34.07566686,-38.17260734,-16.05125051,-1,-1,-1,-1
1.71E+12,128,128,-1,-1,-1,-1,-4.096879149,-34.07538494,-38.17226409,-16.05135116,-1,-1,-1,-1
1.71E+12,128,128,-1,-1,-1,-1,-4.096814541,-34.07508564,-38.17190018,-16.05146184,-1,-1,-1,-1
1.71E+12,128,128,-1,-1,-1,-1,-4.096746633,-34.07476835,-38.17151498,-16.05158327,-1,-1,-1,-1
1.71E+12,128,128,-1,-1,-1,-1,-4.096675409,-34.07443256,-38.17110797,-16.05171618,-1,-1,-1,-1
1.71E+12,128,128,-1,-1,-1,-1,-4.096600874,-34.07407786,-38.17067873,-16.05186137,-1,-1,-1,-1
1.71E+12,128,128,-1,-1,-1,-1,-4.09652306,-34.07370386,-38.17022692,-16.05201964,-1,-1,-1,-1
1.71E+12,128,128,-1,-1,-1,-1,-4.096442027,-34.07331016,-38.16975219,-16.05219181,-1,-1,-1,-1
1.71E+12,128,128,-1,-1,-1,-1,-4.096357855,-34.07289624,-38.16925409,-16.05237873,-1,-1,-1,-1
1.71E+12,128,128,-1,-1,-1,-1,-4.096270644,-34.07246147,-38.16873212,-16.05258129,-1,-1,-1,-1
1.71E+12,128,128,-1,-1,-1,-1,-4.096180507,-34.07200525,-38.16818576,-16.05280037,-1,-1,-1,-1
1.71E+12,128,128,-1,-1,-1,-1,-4.096087563,-34.07152707,-38.16761463,-16.05303694,-1,-1,-1,-1
1.71E+12,128,128,-1,-1,-1,-1,-4.09599194,-34.07102651,-38.16701845,-16.05329194,-1,-1,-1,-1
1.71E+12,128,128,-1,-1,-1,-1,-4.095893783,-34.07050329,-38.16639707,-16.05356632,-1,-1,-1,-1
1.71E+12,128,128,-1,-1,-1,-1,-4.095793253,-34.06995719,-38.16575045,-16.05386107,-1,-1,-1,-1
1.71E+12,128,128,-1,-1,-1,-1,-4.095690535,-34.06938801,-38.16507854,-16.05417722,-1,-1,-1,-1
1.71E+12,128,128,-1,-1,-1,-1,-4.095585826,-34.06879551,-38.16438134,-16.05451587,-1,-1,-1,-1
1.71E+12,128,128,-1,-1,-1,-1,-4.095479333,-34.06817941,-38.16365875,-16.05487811,-1,-1,-1,-1
1.71E+12,128,128,-1,-1,-1,-1,-4.095371276,-34.06753936,-38.16291064,-16.05526498,-1,-1,-1,-1
1.71E+12,128,128,-1,-1,-1,-1,-4.095261897,-34.06687503,-38.16213693,-16.05567759,-1,-1,-1,-1
1.71E+12,128,128,-1,-1,-1,-1,-4.09515146,-34.06618622,-38.16133768,-16.05611708,-1,-1,-1,-1
1.71E+12,128,128,-1,-1,-1,-1,-4.09504025,-34.06547286,-38.16051311,-16.05658461,-1,-1,-1,-1
1.71E+12,128,128,-1,-1,-1,-1,-4.094928571,-34.06473499,-38.15966356,-16.0570813,-1,-1,-1,-1
1.71E+12,128,128,-1,-1,-1,-1,-4.094816753,-34.06397273,-38.15878949,-16.05760826,-1,-1,-1,-1
1.71E+12,128,128,-1,-1,-1,-1,-4.094705133,-34.06318622,-38.15789135,-16.05816664,-1,-1,-1,-1
1.71E+12,128,128,-1,-1,-1,-1,-4.094594064,-34.06237552,-38.15696959,-16.05875762,-1,-1,-1,-1
1.71E+12,128,128,-1,-1,-1,-1,-4.094483923,-34.06154065,-38.15602457,-16.05938238,-1,-1,-1,-1
1.71E+12,128,128,-1,-1,-1,-1,-4.094375106,-34.0606816,-38.1550567,-16.06004207,-1,-1,-1,-1
1.71E+12,128,128,-1,-1,-1,-1,-4.094268024,-34.05979848,-38.1540665,-16.06073784,-1,-1,-1,-1
1.71E+12,128,128,-1,-1,-1,-1,-4.094163114,-34.05889156,-38.15305467,-16.06147091,-1,-1,-1,-1
1.71E+12,128,128,-1,-1,-1,-1,-4.094060837,-34.05796122,-38.15202206,-16.06224248,-1,-1,-1,-1
1.71E+12,128,128,-1,-1,-1,-1,-4.093961666,-34.05700797,-38.15096963,-16.06305372,-1,-1,-1,-1
1.71E+12,128,128,-1,-1,-1,-1,-4.093866087,-34.05603233,-38.14989842,-16.06390581,-1,-1,-1,-1
1.71E+12,128,128,-1,-1,-1,-1,-4.093774602,-34.0550348,-38.1488094,-16.06479991,-1,-1,-1,-1
1.71E+12,128,128,-1,-1,-1,-1,-4.093687716,-34.05401582,-38.14770353,-16.06573718,-1,-1,-1,-1
1.71E+12,128,128,-1,-1,-1,-1,-4.093605948,-34.0529758,-38.14658175,-16.06671876,-1,-1,-1,-1
1.71E+12,128,128,-1,-1,-1,-1,-4.093529827,-34.05191523,-38.14544506,-16.06774579,-1,-1,-1,-1
1.71E+12,128,128,-1,-1,-1,-1,-4.093459892,-34.0508347,-38.14429459,-16.06881939,-1,-1,-1,-1
1.71E+12,128,128,-1,-1,-1,-1,-4.09339669,-34.04973497,-38.14313166,-16.06994067,-1,-1,-1,-1
1.71E+12,128,128,-1,-1,-1,-1,-4.09334078,-34.04861691,-38.14195769,-16.0711107,-1,-1,-1,-1
1.71E+12,128,128,-1,-1,-1,-1,-4.09329272,-34.04748152,-38.14077424,-16.07233054,-1,-1,-1,-1
1.71E+12,128,128,-1,-1,-1,-1,-4.093253075,-34.04632979,-38.13958286,-16.07360125,-1,-1,-1,-1
1.71E+12,128,128,-1,-1,-1,-1,-4.093222408,-34.04516268,-38.13838509,-16.07492388,-1,-1,-1,-1
1.71E+12,128,128,-1,-1,-1,-1,-4.093201286,-34.04398108,-38.13718236,-16.07629944,-1,-1,-1,-1
1.71E+12,128,128,-1,-1,-1,-1,-4.09319028,-34.04278583,-38.13597611,-16.07772888,-1,-1,-1,-1
1.71E+12,128,128,-1,-1,-1,-1,-4.093189957,-34.0415779,-38.13476785,-16.07921311,-1,-1,-1,-1
1.71E+12,128,128,-1,-1,-1,-1,-4.093200878,-34.04035837,-38.13355924,-16.08075304,-1,-1,-1,-1
1.71E+12,128,128,-1,-1,-1,-1,-4.0932236,-34.03912848,-38.13235208,-16.08234956,-1,-1,-1,-1
1.71E+12,128,128,-1,-1,-1,-1,-4.093258673,-34.03788956,-38.13114823,-16.08400356,-1,-1,-1,-1
1.71E+12,128,128,-1,-1,-1,-1,-4.093306643,-34.03664296,-38.12994961,-16.08571594,-1,-1,-1,-1
1.71E+12,128,128,-1,-1,-1,-1,-4.093368044,-34.03539001,-38.12875805,-16.0874875,-1,-1,-1,-1
1.71E+12,128,128,-1,-1,-1,-1,-4.093443391,-34.0341319,-38.12757529,-16.08931899,-1,-1,-1,-1
1.71E+12,128,128,-1,-1,-1,-1,-4.093533169,-34.03286978,-38.12640295,-16.0912111,-1,-1,-1,-1
1.71E+12,128,128,-1,-1,-1,-1,-4.093637822,-34.03160483,-38.12524265,-16.09316447,-1,-1,-1,-1
1.71E+12,128,128,-1,-1,-1,-1,-4.093757762,-34.03033828,-38.12409604,-16.09517965,-1,-1,-1,-1
1.71E+12,128,128,-1,-1,-1,-1,-4.093893372,-34.02907139,-38.12296477,-16.09725715,-1,-1,-1,-1
1.71E+12,128,128,-1,-1,-1,-1,-4.094045015,-34.02780541,-38.12185042,-16.09939743,-1,-1,-1,-1
1.71E+12,128,128,-1,-1,-1,-1,-4.094212994,-34.02654151,-38.1207545,-16.1016009,-1,-1,-1,-1
1.71E+12,128,128,-1,-1,-1,-1,-4.094397516,-34.02528081,-38.11967832,-16.10386788,-1,-1,-1,-1
1.71E+12,128,128,-1,-1,-1,-1,-4.094598661,-34.0240243,-38.11862296,-16.10619862,-1,-1,-1,-1
1.71E+12,128,128,-1,-1,-1,-1,-4.094816363,-34.02277278,-38.11758915,-16.10859333,-1,-1,-1,-1
1.71E+12,128,128,-1,-1,-1,-1,-4.095050422,-34.02152688,-38.1165773,-16.11105216,-1,-1,-1,-1
1.71E+12,128,128,-1,-1,-1,-1,-4.095300498,-34.02028713,-38.11558763,-16.1135753,-1,-1,-1,-1
1.71E+12,128,128,-1,-1,-1,-1,-4.095566159,-34.01905394,-38.1146201,-16.11616288,-1,-1,-1,-1
1.71E+12,128,128,-1,-1,-1,-1,-4.095846951,-34.01782755,-38.11367451,-16.11881497,-1,-1,-1,-1
1.71E+12,128,128,-1,-1,-1,-1,-4.09614245,-34.01660792,-38.11275037,-16.12153165,-1,-1,-1,-1
1.71E+12,128,128,-1,-1,-1,-1,-4.09645231,-34.01539472,-38.11184703,-16.12431304,-1,-1,-1,-1
1.71E+12,128,128,-1,-1,-1,-1,-4.096776282,-34.01418752,-38.1109638,-16.12715925,-1,-1,-1,-1
1.71E+12,128,128,-1,-1,-1,-1,-4.097114239,-34.0129861,-38.11010034,-16.13007035,-1,-1,-1,-1
1.71E+12,128,128,-1,-1,-1,-1,-4.097466367,-34.0117905,-38.10925687,-16.13304637,-1,-1,-1,-1
1.71E+12,128,128,-1,-1,-1,-1,-4.097833292,-34.01060078,-38.10843408,-16.13608728,-1,-1,-1,-1
1.71E+12,128,128,-1,-1,-1,-1,-4.098215864,-34.009417,-38.10763286,-16.13919305,-1,-1,-1,-1
1.71E+12,128,128,-1,-1,-1,-1,-4.098614863,-34.0082394,-38.10685426,-16.14236368,-1,-1,-1,-1
1.71E+12,128,128,-1,-1,-1,-1,-4.099030877,-34.00706853,-38.1060994,-16.14559919,-1,-1,-1,-1
1.71E+12,128,128,-1,-1,-1,-1,-4.099464301,-34.00590512,-38.10536942,-16.1488996,-1,-1,-1,-1
1.71E+12,128,128,-1,-1,-1,-1,-4.099915366,-34.00474998,-38.10466535,-16.15226487,-1,-1,-1,-1
1.71E+12,128,128,-1,-1,-1,-1,-4.100384183,-34.00360388,-38.10398806,-16.15569494,-1,-1,-1,-1
1.71E+12,128,128,-1,-1,-1,-1,-4.100870752,-34.00246748,-38.10333823,-16.15918973,-1,-1,-1,-1
1.71E+12,128,128,-1,-1,-1,-1,-4.101374963,-34.0013414,-38.10271636,-16.16274912,-1,-1,-1,-1
1.71E+12,128,128,-1,-1,-1,-1,-4.101896616,-34.00022619,-38.10212281,-16.16637295,-1,-1,-1,-1
1.71E+12,128,128,-1,-1,-1,-1,-4.102435425,-33.99912243,-38.10155785,-16.17006102,-1,-1,-1,-1
1.71E+12,128,128,-1,-1,-1,-1,-4.10299103,-33.99803062,-38.10102165,-16.17381311,-1,-1,-1,-1
1.71E+12,128,128,-1,-1,-1,-1,-4.103563014,-33.99695117,-38.10051419,-16.17762893,-1,-1,-1,-1
1.71E+12,128,128,-1,-1,-1,-1,-4.104150916,-33.99588436,-38.10003527,-16.18150813,-1,-1,-1,-1
1.71E+12,128,128,-1,-1,-1,-1,-4.104754227,-33.99483022,-38.09958445,-16.18545034,-1,-1,-1,-1
1.71E+12,128,128,-1,-1,-1,-1,-4.105372396,-33.99378861,-38.09916101,-16.18945511,-1,-1,-1,-1
1.71E+12,128,128,-1,-1,-1,-1,-4.106004845,-33.99275917,-38.09876401,-16.19352195,-1,-1,-1,-1
1.71E+12,128,128,-1,-1,-1,-1,-4.10665098,-33.99174144,-38.09839242,-16.19765033,-1,-1,-1,-1
1.71E+12,128,128,-1,-1,-1,-1,-4.107310184,-33.99073495,-38.09804514,-16.20183969,-1,-1,-1,-1
1.71E+12,128,128,-1,-1,-1,-1,-4.107981821,-33.98973929,-38.09772111,-16.2060894,-1,-1,-1,-1
1.71E+12,128,128,-1,-1,-1,-1,-4.108665239,-33.98875408,-38.09741932,-16.2103988,-1,-1,-1,-1
1.71E+12,128,128,-1,-1,-1,-1,-4.109359775,-33.98777898,-38.09713876,-16.21476728,-1,-1,-1,-1
1.71E+12,128,128,-1,-1,-1,-1,-4.110064767,-33.98681358,-38.09687835,-16.21919418,-1,-1,-1,-1
1.71E+12,128,128,-1,-1,-1,-1,-4.11077955,-33.98585734,-38.09663689,-16.22367885,-1,-1,-1,-1
1.71E+12,128,128,-1,-1,-1,-1,-4.111503462,-33.98490955,-38.09641302,-16.22822062,-1,-1,-1,-1
1.71E+12,128,128,-1,-1,-1,-1,-4.112235835,-33.98396943,-38.09620526,-16.2328188,-1,-1,-1,-1
1.71E+12,128,128,-1,-1,-1,-1,-4.112976007,-33.98303619,-38.0960122,-16.23747264,-1,-1,-1,-1
1.71E+12,128,128,-1,-1,-1,-1,-4.113723317,-33.98210913,-38.09583245,-16.2421814,-1,-1,-1,-1
1.71E+12,128,128,-1,-1,-1,-1,-4.114477107,-33.98118767,-38.09566478,-16.24694431,-1,-1,-1,-1
1.71E+12,128,128,-1,-1,-1,-1,-4.115236715,-33.9802713,-38.09550801,-16.2517606,-1,-1,-1,-1
1.71E+12,128,128,-1,-1,-1,-1,-4.116001476,-33.97935955,-38.09536102,-16.25662953,-1,-1,-1,-1
1.71E+12,128,128,-1,-1,-1,-1,-4.116770729,-33.97845192,-38.09522265,-16.2615503,-1,-1,-1,-1
1.71E+12,128,128,-1,-1,-1,-1,-4.117543815,-33.97754784,-38.09509165,-16.26652214,-1,-1,-1,-1
1.71E+12,128,128,-1,-1,-1,-1,-4.118320073,-33.97664658,-38.09496665,-16.27154423,-1,-1,-1,-1
1.71E+12,128,128,-1,-1,-1,-1,-4.119098839,-33.97574743,-38.09484627,-16.27661573,-1,-1,-1,-1
1.71E+12,128,128,-1,-1,-1,-1,-4.119879452,-33.97484977,-38.09472922,-16.28173582,-1,-1,-1,-1
1.71E+12,128,128,-1,-1,-1,-1,-4.120661261,-33.97395312,-38.09461438,-16.28690367,-1,-1,-1,-1
1.71E+12,128,128,-1,-1,-1,-1,-4.121443621,-33.97305713,-38.09450075,-16.29211837,-1,-1,-1,-1
1.71E+12,128,128,-1,-1,-1,-1,-4.122225889,-33.97216156,-38.09438745,-16.29737901,-1,-1,-1,-1
1.71E+12,128,128,-1,-1,-1,-1,-4.123007424,-33.97126616,-38.09427358,-16.30268469,-1,-1,-1,-1
1.71E+12,128,128,-1,-1,-1,-1,-4.123787585,-33.97037065,-38.09415823,-16.30803449,-1,-1,-1,-1
1.71E+12,128,128,-1,-1,-1,-1,-4.124565734,-33.96947467,-38.0940404,-16.31342742,-1,-1,-1,-1
1.71E+12,128,128,-1,-1,-1,-1,-4.125341233,-33.96857781,-38.09391905,-16.31886251,-1,-1,-1,-1
1.71E+12,128,128,-1,-1,-1,-1,-4.12611344,-33.96767978,-38.09379322,-16.32433872,-1,-1,-1,-1
1.71E+12,128,128,-1,-1,-1,-1,-4.12688172,-33.9667804,-38.09366212,-16.32985494,-1,-1,-1,-1
1.71E+12,128,128,-1,-1,-1,-1,-4.127645441,-33.96587968,-38.09352512,-16.33541009,-1,-1,-1,-1
1.71E+12,128,128,-1,-1,-1,-1,-4.128403974,-33.96497773,-38.0933817,-16.3410031,-1,-1,-1,-1
1.71E+12,128,128,-1,-1,-1,-1,-4.129156689,-33.96407471,-38.0932314,-16.34663285,-1,-1,-1,-1
1.71E+12,128,128,-1,-1,-1,-1,-4.129902961,-33.96317081,-38.09307377,-16.35229819,-1,-1,-1,-1
1.71E+12,128,128,-1,-1,-1,-1,-4.130642176,-33.96226614,-38.09290832,-16.3579979,-1,-1,-1,-1
1.71E+12,128,128,-1,-1,-1,-1,-4.131373727,-33.96136071,-38.09273443,-16.36373069,-1,-1,-1,-1
1.71E+12,128,128,-1,-1,-1,-1,-4.132097001,-33.96045453,-38.09255153,-16.36949531,-1,-1,-1,-1
1.71E+12,128,128,-1,-1,-1,-1,-4.132811383,-33.95954773,-38.09235911,-16.37529045,-1,-1,-1,-1
1.71E+12,128,128,-1,-1,-1,-1,-4.133516255,-33.95864059,-38.09215684,-16.38111472,-1,-1,-1,-1
1.71E+12,128,128,-1,-1,-1,-1,-4.134211015,-33.95773351,-38.09194452,-16.38696671,-1,-1,-1,-1
1.71E+12,128,128,-1,-1,-1,-1,-4.134895054,-33.956827,-38.09172206,-16.39284502,-1,-1,-1,-1
1.71E+12,128,128,-1,-1,-1,-1,-4.135567758,-33.95592162,-38.09148938,-16.39874818,-1,-1,-1,-1
1.71E+12,128,128,-1,-1,-1,-1,-4.136228516,-33.95501788,-38.09124639,-16.40467466,-1,-1,-1,-1
1.71E+12,128,128,-1,-1,-1,-1,-4.136876721,-33.95411618,-38.0909929,-16.41062288,-1,-1,-1,-1
1.71E+12,128,128,-1,-1,-1,-1,-4.137511764,-33.95321687,-38.09072863,-16.41659125,-1,-1,-1,-1
1.71E+12,128,128,-1,-1,-1,-1,-4.138133042,-33.95232034,-38.09045338,-16.4225781,-1,-1,-1,-1
1.71E+12,128,128,-1,-1,-1,-1,-4.138739955,-33.95142711,-38.09016706,-16.42858172,-1,-1,-1,-1
1.71E+12,128,128,-1,-1,-1,-1,-4.139331895,-33.95053782,-38.08986972,-16.43460037,-1,-1,-1,-1
1.71E+12,128,128,-1,-1,-1,-1,-4.139908252,-33.94965317,-38.08956142,-16.44063224,-1,-1,-1,-1
1.71E+12,128,128,-1,-1,-1,-1,-4.140468413,-33.9487738,-38.08924222,-16.44667544,-1,-1,-1,-1
1.71E+12,128,128,-1,-1,-1,-1,-4.14101176,-33.94790041,-38.08891217,-16.4527281,-1,-1,-1,-1
1.71E+12,128,128,-1,-1,-1,-1,-4.141537672,-33.94703361,-38.08857128,-16.45878831,-1,-1,-1,-1
1.71E+12,128,128,-1,-1,-1,-1,-4.142045527,-33.94617389,-38.08821942,-16.46485417,-1,-1,-1,-1
1.71E+12,128,128,-1,-1,-1,-1,-4.142534704,-33.94532164,-38.08785635,-16.47092374,-1,-1,-1,-1
1.71E+12,128,128,-1,-1,-1,-1,-4.143004584,-33.94447723,-38.08748181,-16.47699498,-1,-1,-1,-1
1.71E+12,128,128,-1,-1,-1,-1,-4.143454544,-33.9436411,-38.08709565,-16.4830659,-1,-1,-1,-1
1.71E+12,128,128,-1,-1,-1,-1,-4.143883963,-33.9428138,-38.08669777,-16.48913444,-1,-1,-1,-1
1.71E+12,128,128,-1,-1,-1,-1,-4.144292225,-33.94199594,-38.08628816,-16.4951985,-1,-1,-1,-1
1.71E+12,128,128,-1,-1,-1,-1,-4.144678714,-33.94118809,-38.0858668,-16.50125596,-1,-1,-1,-1
1.71E+12,128,128,-1,-1,-1,-1,-4.145042816,-33.94039078,-38.0854336,-16.50730465,-1,-1,-1,-1
1.71E+12,128,128,-1,-1,-1,-1,-4.145383914,-33.93960439,-38.0849883,-16.51334242,-1,-1,-1,-1
1.71E+12,128,128,-1,-1,-1,-1,-4.145701395,-33.9388291,-38.0845305,-16.5193671,-1,-1,-1,-1
1.71E+12,128,128,-1,-1,-1,-1,-4.145994642,-33.93806504,-38.08405968,-16.5253765,-1,-1,-1,-1
1.71E+12,128,128,-1,-1,-1,-1,-4.146263044,-33.93731233,-38.08357537,-16.53136843,-1,-1,-1,-1
1.71E+12,128,128,-1,-1,-1,-1,-4.146506002,-33.93657111,-38.08307712,-16.53734065,-1,-1,-1,-1
1.71E+12,128,128,-1,-1,-1,-1,-4.146722913,-33.93584157,-38.08256448,-16.54329092,-1,-1,-1,-1
1.71E+12,128,128,-1,-1,-1,-1,-4.146913174,-33.93512388,-38.08203705,-16.54921698,-1,-1,-1,-1
1.71E+12,128,128,-1,-1,-1,-1,-4.147076182,-33.93441815,-38.08149433,-16.55511658,-1,-1,-1,-1
1.71E+12,128,128,-1,-1,-1,-1,-4.147211338,-33.93372436,-38.0809357,-16.56098748,-1,-1,-1,-1
1.71E+12,128,128,-1,-1,-1,-1,-4.147318048,-33.93304226,-38.08036031,-16.5668274,-1,-1,-1,-1
1.71E+12,128,128,-1,-1,-1,-1,-4.147395723,-33.93237143,-38.07976715,-16.57263409,-1,-1,-1,-1
1.71E+12,128,128,-1,-1,-1,-1,-4.147443783,-33.93171136,-38.07915515,-16.5784053,-1,-1,-1,-1
1.71E+12,128,128,-1,-1,-1,-1,-4.147461654,-33.93106165,-38.07852331,-16.58413888,-1,-1,-1,-1
1.71E+12,128,128,-1,-1,-1,-1,-4.14744878,-33.93042199,-38.07787077,-16.58983264,-1,-1,-1,-1
1.71E+12,128,128,-1,-1,-1,-1,-4.147404624,-33.92979208,-38.07719671,-16.59548443,-1,-1,-1,-1
1.71E+12,128,128,-1,-1,-1,-1,-4.147328669,-33.92917154,-38.07650021,-16.60109209,-1,-1,-1,-1
1.71E+12,128,128,-1,-1,-1,-1,-4.147220417,-33.92855975,-38.07578017,-16.60665353,-1,-1,-1,-1
1.71E+12,128,128,-1,-1,-1,-1,-4.147079383,-33.92795588,-38.07503526,-16.61216662,-1,-1,-1,-1
1.71E+12,128,128,-1,-1,-1,-1,-4.146905094,-33.92735883,-38.07426393,-16.61762931,-1,-1,-1,-1
1.71E+12,128,128,-1,-1,-1,-1,-4.146697099,-33.92676743,-38.07346453,-16.62303961,-1,-1,-1,-1
1.71E+12,128,128,-1,-1,-1,-1,-4.146454974,-33.92618055,-38.07263553,-16.62839556,-1,-1,-1,-1
1.71E+12,128,128,-1,-1,-1,-1,-4.146178307,-33.92559719,-38.0717755,-16.63369523,-1,-1,-1,-1
1.71E+12,128,128,-1,-1,-1,-1,-4.145866707,-33.92501645,-38.07088316,-16.63893674,-1,-1,-1,-1
1.71E+12,128,128,-1,-1,-1,-1,-4.145519813,-33.92443733,-38.06995715,-16.64411826,-1,-1,-1,-1
1.71E+12,128,128,-1,-1,-1,-1,-4.145137273,-33.92385871,-38.06899598,-16.64923804,-1,-1,-1,-1
1.71E+12,128,128,-1,-1,-1,-1,-4.144718764,-33.92327926,-38.06799802,-16.65429446,-1,-1,-1,-1
1.71E+12,128,128,-1,-1,-1,-1,-4.144263993,-33.92269741,-38.0669614,-16.65928585,-1,-1,-1,-1
1.71E+12,128,128,-1,-1,-1,-1,-4.143772694,-33.92211142,-38.06588411,-16.66421057,-1,-1,-1,-1
1.71E+12,128,128,-1,-1,-1,-1,-4.143244621,-33.9215195,-38.06476412,-16.66906707,-1,-1,-1,-1
1.71E+12,128,128,-1,-1,-1,-1,-4.142679544,-33.92091999,-38.06359954,-16.67385385,-1,-1,-1,-1
1.71E+12,128,128,-1,-1,-1,-1,-4.142077264,-33.9203114,-38.06238866,-16.67856944,-1,-1,-1,-1
1.71E+12,128,128,-1,-1,-1,-1,-4.14143761,-33.91969229,-38.0611299,-16.68321253,-1,-1,-1,-1
1.71E+12,128,128,-1,-1,-1,-1,-4.140760449,-33.91906121,-38.05982165,-16.68778185,-1,-1,-1,-1
1.71E+12,128,128,-1,-1,-1,-1,-4.14004569,-33.91841653,-38.05846221,-16.69227615,-1,-1,-1,-1
1.71E+12,128,128,-1,-1,-1,-1,-4.139293281,-33.91775644,-38.05704972,-16.69669429,-1,-1,-1,-1
1.71E+12,128,128,-1,-1,-1,-1,-4.138503208,-33.91707895,-38.05558216,-16.70103528,-1,-1,-1,-1
1.71E+12,128,128,-1,-1,-1,-1,-4.13767549,-33.91638204,-38.05405753,-16.70529813,-1,-1,-1,-1
1.71E+12,128,128,-1,-1,-1,-1,-4.136810178,-33.91566376,-38.05247394,-16.70948202,-1,-1,-1,-1
1.71E+12,128,128,-1,-1,-1,-1,-4.135907373,-33.91492242,-38.05082979,-16.71358614,-1,-1,-1,-1
1.71E+12,128,128,-1,-1,-1,-1,-4.134967219,-33.91415647,-38.04912369,-16.71760976,-1,-1,-1,-1
1.71E+12,128,128,-1,-1,-1,-1,-4.133989894,-33.91336442,-38.04735432,-16.7215522,-1,-1,-1,-1
1.71E+12,128,128,-1,-1,-1,-1,-4.132975619,-33.91254475,-38.04552037,-16.72541283,-1,-1,-1,-1
1.71E+12,128,128,-1,-1,-1,-1,-4.131924658,-33.91169578,-38.04362043,-16.72919113,-1,-1,-1,-1
1.71E+12,128,128,-1,-1,-1,-1,-4.130837323,-33.91081569,-38.04165301,-16.73288672,-1,-1,-1,-1
1.71E+12,128,128,-1,-1,-1,-1,-4.12971397,-33.90990258,-38.03961655,-16.73649922,-1,-1,-1,-1
1.71E+12,128,128,-1,-1,-1,-1,-4.128554997,-33.90895466,-38.03750966,-16.74002821,-1,-1,-1,-1
1.71E+12,128,128,-1,-1,-1,-1,-4.127360856,-33.90797034,-38.0353312,-16.74347346,-1,-1,-1,-1
1.71E+12,128,128,-1,-1,-1,-1,-4.126132044,-33.90694833,-38.03308038,-16.74683479,-1,-1,-1,-1
1.71E+12,128,128,-1,-1,-1,-1,-4.124869109,-33.90588752,-38.03075663,-16.7501121,-1,-1,-1,-1
1.71E+12,128,128,-1,-1,-1,-1,-4.123572658,-33.90478682,-38.02835948,-16.75330537,-1,-1,-1,-1
1.71E+12,128,128,-1,-1,-1,-1,-4.12224336,-33.90364513,-38.02588849,-16.75641459,-1,-1,-1,-1
1.71E+12,128,128,-1,-1,-1,-1,-4.120881948,-33.90246127,-38.02334322,-16.75943975,-1,-1,-1,-1
1.71E+12,128,128,-1,-1,-1,-1,-4.11948919,-33.90123403,-38.02072322,-16.76238108,-1,-1,-1,-1
1.71E+12,128,128,-1,-1,-1,-1,-4.118065895,-33.89996223,-38.01802812,-16.76523886,-1,-1,-1,-1
1.71E+12,128,128,-1,-1,-1,-1,-4.116612928,-33.89864488,-38.01525781,-16.76801331,-1,-1,-1,-1
1.71E+12,128,128,-1,-1,-1,-1,-4.115131213,-33.89728132,-38.01241253,-16.77070474,-1,-1,-1,-1
1.71E+12,128,128,-1,-1,-1,-1,-4.113621737,-33.89587116,-38.00949289,-16.77331356,-1,-1,-1,-1
1.71E+12,128,128,-1,-1,-1,-1,-4.112085543,-33.89441416,-38.0064997,-16.77584024,-1,-1,-1,-1
1.71E+12,128,128,-1,-1,-1,-1,-4.110523718,-33.89291017,-38.00343388,-16.77828524,-1,-1,-1,-1
1.71E+12,128,128,-1,-1,-1,-1,-4.108937393,-33.89135898,-38.00029637,-16.78064915,-1,-1,-1,-1
1.71E+12,128,128,-1,-1,-1,-1,-4.10732774,-33.88976032,-37.99708806,-16.78293255,-1,-1,-1,-1
1.71E+12,128,128,-1,-1,-1,-1,-4.10569596,-33.8881139,-37.99380986,-16.78513601,-1,-1,-1,-1
1.71E+12,128,128,-1,-1,-1,-1,-4.104043293,-33.88641964,-37.99046293,-16.78726018,-1,-1,-1,-1
1.71E+12,128,128,-1,-1,-1,-1,-4.102371017,-33.88467777,-37.98704879,-16.78930575,-1,-1,-1,-1
1.71E+12,128,128,-1,-1,-1,-1,-4.100680455,-33.88288884,-37.9835693,-16.79127347,-1,-1,-1,-1
1.71E+12,128,128,-1,-1,-1,-1,-4.098972968,-33.88105363,-37.9800266,-16.79316415,-1,-1,-1,-1
1.71E+12,128,128,-1,-1,-1,-1,-4.097249964,-33.879173,-37.97642297,-16.79497855,-1,-1,-1,-1
1.71E+12,128,128,-1,-1,-1,-1,-4.09551289,-33.87724786,-37.97276075,-16.79671748,-1,-1,-1,-1
1.71E+12,128,128,-1,-1,-1,-1,-4.093763225,-33.87527909,-37.96904231,-16.79838182,-1,-1,-1,-1
1.71E+12,128,128,-1,-1,-1,-1,-4.09200249,-33.87326753,-37.96527002,-16.79997244,-1,-1,-1,-1
1.71E+12,128,128,-1,-1,-1,-1,-4.090232237,-33.87121408,-37.96144631,-16.80149016,-1,-1,-1,-1
1.71E+12,128,128,-1,-1,-1,-1,-4.08845406,-33.86911984,-37.9575739,-16.80293576,-1,-1,-1,-1
1.71E+12,128,128,-1,-1,-1,-1,-4.086669586,-33.86698624,-37.95365583,-16.80431012,-1,-1,-1,-1
1.71E+12,128,128,-1,-1,-1,-1,-4.08488048,-33.86481501,-37.94969549,-16.80561419,-1,-1,-1,-1
1.71E+12,128,128,-1,-1,-1,-1,-4.083088424,-33.86260808,-37.9456965,-16.80684889,-1,-1,-1,-1
1.71E+12,128,128,-1,-1,-1,-1,-4.081295112,-33.86036745,-37.94166256,-16.80801514,-1,-1,-1,-1
1.71E+12,128,128,-1,-1,-1,-1,-4.079502256,-33.85809508,-37.93759734,-16.80911385,-1,-1,-1,-1
1.71E+12,128,128,-1,-1,-1,-1,-4.077711588,-33.85579286,-37.93350445,-16.810146,-1,-1,-1,-1
1.71E+12,128,128,-1,-1,-1,-1,-4.075924853,-33.85346262,-37.92938748,-16.8111126,-1,-1,-1,-1
1.71E+12,128,128,-1,-1,-1,-1,-4.074143822,-33.85110633,-37.92525015,-16.81201457,-1,-1,-1,-1
1.71E+12,128,128,-1,-1,-1,-1,-4.07237029,-33.84872618,-37.92109647,-16.8128528,-1,-1,-1,-1
1.71E+12,128,128,-1,-1,-1,-1,-4.070606046,-33.84632471,-37.91693075,-16.81362817,-1,-1,-1,-1
1.71E+12,128,128,-1,-1,-1,-1,-4.06885288,-33.84390466,-37.91275754,-16.81434165,-1,-1,-1,-1
1.71E+12,128,128,-1,-1,-1,-1,-4.067112598,-33.84146884,-37.90858144,-16.81499417,-1,-1,-1,-1
1.71E+12,128,128,-1,-1,-1,-1,-4.065387007,-33.83901999,-37.90440699,-16.81558663,-1,-1,-1,-1
1.71E+12,128,128,-1,-1,-1,-1,-4.063677895,-33.83656077,-37.90023866,-16.81611991,-1,-1,-1,-1
1.71E+12,128,128,-1,-1,-1,-1,-4.061987046,-33.83409373,-37.89608078,-16.81659486,-1,-1,-1,-1
1.71E+12,128,128,-1,-1,-1,-1,-4.060316236,-33.83162139,-37.89193762,-16.81701235,-1,-1,-1,-1
1.71E+12,128,128,-1,-1,-1,-1,-4.058667241,-33.82914634,-37.88781358,-16.81737324,-1,-1,-1,-1
1.71E+12,128,128,-1,-1,-1,-1,-4.057041844,-33.82667142,-37.88371326,-16.81767841,-1,-1,-1,-1
1.71E+12,128,128,-1,-1,-1,-1,-4.055441817,-33.82419962,-37.87964143,-16.81792876,-1,-1,-1,-1
1.71E+12,128,128,-1,-1,-1,-1,-4.053868913,-33.82173403,-37.87560295,-16.81812513,-1,-1,-1,-1
1.71E+12,128,128,-1,-1,-1,-1,-4.052324873,-33.8192777,-37.87160258,-16.81826838,-1,-1,-1,-1
1.71E+12,128,128,-1,-1,-1,-1,-4.050811422,-33.81683351,-37.86764493,-16.81835932,-1,-1,-1,-1
1.71E+12,128,128,-1,-1,-1,-1,-4.049330262,-33.81440411,-37.86373437,-16.81839877,-1,-1,-1,-1
1.71E+12,128,128,-1,-1,-1,-1,-4.047883073,-33.81199198,-37.85987506,-16.81838751,-1,-1,-1,-1
1.71E+12,128,128,-1,-1,-1,-1,-4.046471514,-33.80959957,-37.85607109,-16.81832629,-1,-1,-1,-1
1.71E+12,128,128,-1,-1,-1,-1,-4.045097215,-33.80722941,-37.85232663,-16.81821583,-1,-1,-1,-1
1.71E+12,128,128,-1,-1,-1,-1,-4.043761767,-33.80488424,-37.84864601,-16.8180569,-1,-1,-1,-1
1.71E+12,128,128,-1,-1,-1,-1,-4.042466728,-33.80256692,-37.84503364,-16.81785027,-1,-1,-1,-1
1.71E+12,128,128,-1,-1,-1,-1,-4.04121362,-33.80028022,-37.84149384,-16.81759669,-1,-1,-1,-1
1.71E+12,128,128,-1,-1,-1,-1,-4.040003921,-33.79802675,-37.83803068,-16.81729692,-1,-1,-1,-1
1.71E+12,128,128,-1,-1,-1,-1,-4.03883906,-33.79580885,-37.83464791,-16.81695171,-1,-1,-1,-1
1.71E+12,128,128,-1,-1,-1,-1,-4.037720414,-33.79362857,-37.83134898,-16.81656178,-1,-1,-1,-1
1.71E+12,128,128,-1,-1,-1,-1,-4.036649306,-33.79148781,-37.82813712,-16.81612777,-1,-1,-1,-1
1.71E+12,128,128,-1,-1,-1,-1,-4.035627004,-33.78938846,-37.82501547,-16.81565033,-1,-1,-1,-1
1.71E+12,128,128,-1,-1,-1,-1,-4.034654716,-33.7873325,-37.82198721,-16.81513016,-1,-1,-1,-1
1.71E+12,128,128,-1,-1,-1,-1,-4.033733613,-33.78532197,-37.81905558,-16.81456799,-1,-1,-1,-1
1.71E+12,128,128,-1,-1,-1,-1,-4.032864819,-33.78335888,-37.8162237,-16.81396449,-1,-1,-1,-1
1.71E+12,128,128,-1,-1,-1,-1,-4.032049403,-33.7814451,-37.8134945,-16.81332045,-1,-1,-1,-1
1.71E+12,128,128,-1,-1,-1,-1,-4.031288376,-33.77958233,-37.8108707,-16.81263667,-1,-1,-1,-1
1.71E+12,128,128,-1,-1,-1,-1,-4.030582678,-33.77777208,-37.80835476,-16.81191393,-1,-1,-1,-1
1.71E+12,128,128,-1,-1,-1,-1,-4.029933213,-33.77601565,-37.80594886,-16.811153,-1,-1,-1,-1
1.71E+12,128,128,-1,-1,-1,-1,-4.029340879,-33.77431421,-37.80365509,-16.81035469,-1,-1,-1,-1
1.71E+12,128,128,-1,-1,-1,-1,-4.0288066,-33.77266897,-37.80147557,-16.80951985,-1,-1,-1,-1
1.71E+12,128,128,-1,-1,-1,-1,-4.028331343,-33.77108131,-37.79941265,-16.80864932,-1,-1,-1,-1
1.71E+12,128,128,-1,-1,-1,-1,-4.027916097,-33.76955269,-37.79746879,-16.80774394,-1,-1,-1,-1
1.71E+12,128,128,-1,-1,-1,-1,-4.027561876,-33.76808457,-37.79564644,-16.80680454,-1,-1,-1,-1
1.71E+12,128,128,-1,-1,-1,-1,-4.027269691,-33.76667831,-37.793948,-16.80583192,-1,-1,-1,-1
1.71E+12,128,128,-1,-1,-1,-1,-4.02704047,-33.76533523,-37.7923757,-16.8048269,-1,-1,-1,-1
1.71E+12,128,128,-1,-1,-1,-1,-4.026874992,-33.76405655,-37.79093155,-16.80379025,-1,-1,-1,-1
1.71E+12,128,128,-1,-1,-1,-1,-4.026773829,-33.7628435,-37.78961733,-16.80272272,-1,-1,-1,-1
1.71E+12,128,128,-1,-1,-1,-1,-4.026737337,-33.76169723,-37.78843457,-16.801625,-1,-1,-1,-1
1.71E+12,128,128,-1,-1,-1,-1,-4.02676562,-33.76061858,-37.7873842,-16.80049779,-1,-1,-1,-1
1.71E+12,128,128,-1,-1,-1,-1,-4.026858346,-33.75960801,-37.78646636,-16.79934176,-1,-1,-1,-1
1.71E+12,128,128,-1,-1,-1,-1,-4.027014627,-33.75866587,-37.7856805,-16.79815764,-1,-1,-1,-1
1.71E+12,128,128,-1,-1,-1,-1,-4.027233239,-33.75779232,-37.78502556,-16.79694613,-1,-1,-1,-1
1.71E+12,128,128,-1,-1,-1,-1,-4.027512918,-33.75698717,-37.78450008,-16.7957079,-1,-1,-1,-1
1.71E+12,128,128,-1,-1,-1,-1,-4.027852478,-33.75624964,-37.78410212,-16.79444352,-1,-1,-1,-1
1.71E+12,128,128,-1,-1,-1,-1,-4.028250803,-33.75557846,-37.78382926,-16.79315355,-1,-1,-1,-1
1.71E+12,128,128,-1,-1,-1,-1,-4.02870682,-33.75497203,-37.78367885,-16.79183862,-1,-1,-1,-1
1.71E+12,128,128,-1,-1,-1,-1,-4.029219463,-33.75442866,-37.78364813,-16.79049933,-1,-1,-1,-1
1.71E+12,128,128,-1,-1,-1,-1,-4.029787661,-33.75394668,-37.78373434,-16.7891363,-1,-1,-1,-1
1.71E+12,128,128,-1,-1,-1,-1,-4.030410344,-33.75352438,-37.78393473,-16.78775019,-1,-1,-1,-1
1.71E+12,128,128,-1,-1,-1,-1,-4.03108642,-33.75315999,-37.78424641,-16.78634157,-1,-1,-1,-1
1.71E+12,128,128,-1,-1,-1,-1,-4.031814784,-33.75285156,-37.78466635,-16.78491105,-1,-1,-1,-1
1.71E+12,128,128,-1,-1,-1,-1,-4.032594305,-33.75259697,-37.78519128,-16.78345933,-1,-1,-1,-1
1.71E+12,128,128,-1,-1,-1,-1,-4.033423807,-33.75239393,-37.78581773,-16.78198715,-1,-1,-1,-1
1.71E+12,128,128,-1,-1,-1,-1,-4.034302058,-33.75224007,-37.78654213,-16.78049516,-1,-1,-1,-1
1.71E+12,128,128,-1,-1,-1,-1,-4.035227781,-33.75213313,-37.78736091,-16.77898409,-1,-1,-1,-1
1.71E+12,128,128,-1,-1,-1,-1,-4.036199645,-33.75207103,-37.78827067,-16.77745474,-1,-1,-1,-1
1.71E+12,128,128,-1,-1,-1,-1,-4.037216257,-33.75205188,-37.78926814,-16.77590791,-1,-1,-1,-1
1.71E+12,128,128,-1,-1,-1,-1,-4.038276168,-33.75207388,-37.79035005,-16.77434438,-1,-1,-1,-1
1.71E+12,128,128,-1,-1,-1,-1,-4.039377881,-33.75213512,-37.791513,-16.77276499,-1,-1,-1,-1
1.71E+12,128,128,-1,-1,-1,-1,-4.040519835,-33.75223354,-37.79275338,-16.77117068,-1,-1,-1,-1
1.71E+12,128,128,-1,-1,-1,-1,-4.041700415,-33.75236689,-37.7940673,-16.76956234,-1,-1,-1,-1
1.71E+12,128,128,-1,-1,-1,-1,-4.042917956,-33.75253267,-37.79545063,-16.76794077,-1,-1,-1,-1
1.71E+12,128,128,-1,-1,-1,-1,-4.044170744,-33.75272831,-37.79689905,-16.76630677,-1,-1,-1,-1
1.71E+12,128,128,-1,-1,-1,-1,-4.045457064,-33.75295148,-37.79840854,-16.76466108,-1,-1,-1,-1
1.71E+12,128,128,-1,-1,-1,-1,-4.046775203,-33.75320013,-37.79997533,-16.76300443,-1,-1,-1,-1
1.71E+12,128,128,-1,-1,-1,-1,-4.048123394,-33.75347228,-37.80159567,-16.76133764,-1,-1,-1,-1
1.71E+12,128,128,-1,-1,-1,-1,-4.049499824,-33.75376578,-37.8032656,-16.75966151,-1,-1,-1,-1
1.71E+12,128,128,-1,-1,-1,-1,-4.05090264,-33.75407827,-37.80498091,-16.7579768,-1,-1,-1,-1
1.71E+12,128,128,-1,-1,-1,-1,-4.052329964,-33.75440721,-37.80673718,-16.75628421,-1,-1,-1,-1
1.71E+12,128,128,-1,-1,-1,-1,-4.053779907,-33.75474999,-37.8085299,-16.75458441,-1,-1,-1,-1
1.71E+12,128,128,-1,-1,-1,-1,-4.055250565,-33.75510409,-37.81035465,-16.75287802,-1,-1,-1,-1
1.71E+12,128,128,-1,-1,-1,-1,-4.056740019,-33.75546711,-37.81220713,-16.75116573,-1,-1,-1,-1
1.71E+12,128,128,-1,-1,-1,-1,-4.058246348,-33.75583686,-37.8140832,-16.74944817,-1,-1,-1,-1
1.71E+12,128,128,-1,-1,-1,-1,-4.059767632,-33.75621126,-37.8159789,-16.747726,-1,-1,-1,-1
1.71E+12,128,128,-1,-1,-1,-1,-4.061301961,-33.7565883,-37.81789026,-16.74599983,-1,-1,-1,-1
1.71E+12,128,128,-1,-1,-1,-1,-4.062847432,-33.75696579,-37.81981323,-16.74427019,-1,-1,-1,-1
1.71E+12,128,128,-1,-1,-1,-1,-4.064402153,-33.75734137,-37.82174353,-16.74253759,-1,-1,-1,-1
1.71E+12,128,128,-1,-1,-1,-1,-4.065964255,-33.75771258,-37.82367684,-16.7408026,-1,-1,-1,-1
1.71E+12,128,128,-1,-1,-1,-1,-4.0675319,-33.75807701,-37.82560891,-16.73906568,-1,-1,-1,-1
1.71E+12,128,128,-1,-1,-1,-1,-4.069103281,-33.75843245,-37.82753573,-16.73732728,-1,-1,-1,-1
1.71E+12,128,128,-1,-1,-1,-1,-4.070676625,-33.7587769,-37.82945353,-16.73558792,-1,-1,-1,-1
1.71E+12,128,128,-1,-1,-1,-1,-4.072250207,-33.75910862,-37.83135883,-16.73384805,-1,-1,-1,-1
1.71E+12,128,128,-1,-1,-1,-1,-4.073822351,-33.75942597,-37.83324832,-16.7321081,-1,-1,-1,-1
1.71E+12,128,128,-1,-1,-1,-1,-4.075391433,-33.75972724,-37.83511868,-16.73036851,-1,-1,-1,-1
1.71E+12,128,128,-1,-1,-1,-1,-4.076955851,-33.7600106,-37.83696645,-16.72862972,-1,-1,-1,-1
1.71E+12,128,128,-1,-1,-1,-1,-4.078514033,-33.76027409,-37.83878812,-16.72689206,-1,-1,-1,-1
1.71E+12,128,128,-1,-1,-1,-1,-4.080064447,-33.76051577,-37.84058022,-16.7251557,-1,-1,-1,-1
1.71E+12,128,128,-1,-1,-1,-1,-4.081605634,-33.76073373,-37.84233937,-16.72342084,-1,-1,-1,-1
1.71E+12,128,128,-1,-1,-1,-1,-4.083136195,-33.76092614,-37.84406233,-16.72168769,-1,-1,-1,-1
1.71E+12,128,128,-1,-1,-1,-1,-4.084654741,-33.76109136,-37.8457461,-16.71995645,-1,-1,-1,-1
1.71E+12,128,128,-1,-1,-1,-1,-4.08615987,-33.76122801,-37.84738788,-16.7182273,-1,-1,-1,-1
1.71E+12,128,128,-1,-1,-1,-1,-4.087650133,-33.76133471,-37.84898484,-16.71650036,-1,-1,-1,-1
1.71E+12,128,128,-1,-1,-1,-1,-4.08912406,-33.76140996,-37.85053402,-16.71477582,-1,-1,-1,-1
1.71E+12,128,128,-1,-1,-1,-1,-4.090580152,-33.7614521,-37.85203225,-16.71305382,-1,-1,-1,-1
1.71E+12,128,128,-1,-1,-1,-1,-4.09201687,-33.76145932,-37.85347619,-16.71133449,-1,-1,-1,-1
1.71E+12,128,128,-1,-1,-1,-1,-4.09343272,-33.76142971,-37.85486243,-16.7096179,-1,-1,-1,-1
1.71E+12,128,128,-1,-1,-1,-1,-4.094826331,-33.76136119,-37.85618752,-16.70790418,-1,-1,-1,-1
1.71E+12,128,128,-1,-1,-1,-1,-4.096196495,-33.76125162,-37.85744812,-16.70619354,-1,-1,-1,-1
1.71E+12,128,128,-1,-1,-1,-1,-4.097542194,-33.76109892,-37.85864111,-16.70448624,-1,-1,-1,-1
1.71E+12,128,128,-1,-1,-1,-1,-4.098862628,-33.76090124,-37.85976387,-16.70278246,-1,-1,-1,-1
1.71E+12,128,128,-1,-1,-1,-1,-4.100157254,-33.7606572,-37.86081446,-16.70108248,-1,-1,-1,-1
1.71E+12,128,128,-1,-1,-1,-1,-4.101425937,-33.76036559,-37.86179152,-16.69938659,-1,-1,-1,-1
1.71E+12,128,128,-1,-1,-1,-1,-4.102669072,-33.76002505,-37.86269412,-16.69769509,-1,-1,-1,-1
1.71E+12,128,128,-1,-1,-1,-1,-4.103887361,-33.75963436,-37.86352173,-16.69600838,-1,-1,-1,-1
1.71E+12,128,128,-1,-1,-1,-1,-4.105081525,-33.75919271,-37.86427423,-16.69432694,-1,-1,-1,-1
1.71E+12,128,128,-1,-1,-1,-1,-4.106252198,-33.7586996,-37.8649518,-16.69265122,-1,-1,-1,-1
1.71E+12,128,128,-1,-1,-1,-1,-4.10739992,-33.75815491,-37.86555482,-16.69098168,-1,-1,-1,-1
1.71E+12,128,128,-1,-1,-1,-1,-4.108525173,-33.75755886,-37.86608403,-16.68931874,-1,-1,-1,-1
1.71E+12,128,128,-1,-1,-1,-1,-4.109628428,-33.75691193,-37.86654036,-16.68766282,-1,-1,-1,-1
1.71E+12,128,128,-1,-1,-1,-1,-4.110710128,-33.75621465,-37.86692477,-16.68601433,-1,-1,-1,-1
1.71E+12,128,128,-1,-1,-1,-1,-4.111770717,-33.75546744,-37.86723816,-16.68437365,-1,-1,-1,-1
1.71E+12,128,128,-1,-1,-1,-1,-4.112810674,-33.75467064,-37.86748132,-16.68274114,-1,-1,-1,-1
1.71E+12,128,128,-1,-1,-1,-1,-4.113830521,-33.75382446,-37.86765498,-16.68111716,-1,-1,-1,-1
1.71E+12,128,128,-1,-1,-1,-1,-4.11483084,-33.75292911,-37.86775995,-16.67950206,-1,-1,-1,-1
1.71E+12,128,128,-1,-1,-1,-1,-4.115812241,-33.75198486,-37.8677971,-16.67789608,-1,-1,-1,-1
1.71E+12,128,128,-1,-1,-1,-1,-4.11677537,-33.75099215,-37.86776752,-16.67629944,-1,-1,-1,-1
1.71E+12,128,128,-1,-1,-1,-1,-4.117720918,-33.74995156,-37.86767247,-16.67471242,-1,-1,-1,-1
1.71E+12,128,128,-1,-1,-1,-1,-4.118649618,-33.74886365,-37.86751326,-16.67313525,-1,-1,-1,-1
1.71E+12,128,128,-1,-1,-1,-1,-4.119562236,-33.74772884,-37.86729108,-16.67156818,-1,-1,-1,-1
1.71E+12,128,128,-1,-1,-1,-1,-4.120459561,-33.74654742,-37.86700698,-16.67001149,-1,-1,-1,-1
1.71E+12,128,128,-1,-1,-1,-1,-4.121342427,-33.74531961,-37.86666203,-16.66846543,-1,-1,-1,-1
1.71E+12,128,128,-1,-1,-1,-1,-4.122211714,-33.74404564,-37.86625736,-16.66693023,-1,-1,-1,-1
1.71E+12,128,128,-1,-1,-1,-1,-4.123068339,-33.74272591,-37.86579425,-16.66540613,-1,-1,-1,-1
1.71E+12,128,128,-1,-1,-1,-1,-4.123913248,-33.74136101,-37.86527425,-16.66389337,-1,-1,-1,-1
1.71E+12,128,128,-1,-1,-1,-1,-4.12474741,-33.73995171,-37.86469912,-16.66239222,-1,-1,-1,-1
1.71E+12,128,128,-1,-1,-1,-1,-4.125571806,-33.73849897,-37.86407078,-16.66090304,-1,-1,-1,-1
1.71E+12,128,128,-1,-1,-1,-1,-4.126387424,-33.73700372,-37.86339114,-16.65942623,-1,-1,-1,-1
1.71E+12,128,128,-1,-1,-1,-1,-4.127195271,-33.73546673,-37.862662,-16.6579621,-1,-1,-1,-1
1.71E+12,128,128,-1,-1,-1,-1,-4.127996364,-33.73388868,-37.86188504,-16.65651095,-1,-1,-1,-1
1.71E+12,128,128,-1,-1,-1,-1,-4.128791717,-33.73227027,-37.86106199,-16.65507314,-1,-1,-1,-1
1.71E+12,128,128,-1,-1,-1,-1,-4.129582342,-33.73061231,-37.86019465,-16.65364903,-1,-1,-1,-1
1.71E+12,128,128,-1,-1,-1,-1,-4.13036925,-33.72891574,-37.85928499,-16.652239,-1,-1,-1,-1
1.71E+12,128,128,-1,-1,-1,-1,-4.13115345,-33.72718169,-37.85833514,-16.65084342,-1,-1,-1,-1
1.71E+12,128,128,-1,-1,-1,-1,-4.131935943,-33.72541145,-37.8573474,-16.6494626,-1,-1,-1,-1
1.71E+12,128,128,-1,-1,-1,-1,-4.132717703,-33.72360639,-37.85632409,-16.6480969,-1,-1,-1,-1
1.71E+12,128,128,-1,-1,-1,-1,-4.133499674,-33.72176775,-37.85526743,-16.64674663,-1,-1,-1,-1
1.71E+12,128,128,-1,-1,-1,-1,-4.134282782,-33.71989662,-37.8541794,-16.64541213,-1,-1,-1,-1
1.71E+12,128,128,-1,-1,-1,-1,-4.135067921,-33.71799399,-37.85306191,-16.64409373,-1,-1,-1,-1
1.71E+12,128,128,-1,-1,-1,-1,-4.135855944,-33.7160609,-37.85191684,-16.64279176,-1,-1,-1,-1
1.71E+12,128,128,-1,-1,-1,-1,-4.136647681,-33.71409852,-37.85074621,-16.64150649,-1,-1,-1,-1
1.71E+12,128,128,-1,-1,-1,-1,-4.137443923,-33.71210819,-37.84955212,-16.64023814,-1,-1,-1,-1
1.71E+12,128,128,-1,-1,-1,-1,-4.1382454,-33.71009143,-37.84833683,-16.63898702,-1,-1,-1,-1
1.71E+12,128,128,-1,-1,-1,-1,-4.139052785,-33.70804987,-37.84710266,-16.63775343,-1,-1,-1,-1
1.71E+12,128,128,-1,-1,-1,-1,-4.139866713,-33.70598516,-37.84585187,-16.63653756,-1,-1,-1,-1
1.71E+12,128,128,-1,-1,-1,-1,-4.140687763,-33.70389876,-37.84458652,-16.63533963,-1,-1,-1,-1
1.71E+12,128,128,-1,-1,-1,-1,-4.141516448,-33.70179205,-37.8433085,-16.63415989,-1,-1,-1,-1
1.71E+12,128,128,-1,-1,-1,-1,-4.14235322,-33.69966636,-37.84201958,-16.63299848,-1,-1,-1,-1
1.71E+12,128,128,-1,-1,-1,-1,-4.143198478,-33.69752311,-37.84072158,-16.6318555,-1,-1,-1,-1
1.71E+12,128,128,-1,-1,-1,-1,-4.144052555,-33.69536384,-37.8394164,-16.63073109,-1,-1,-1,-1
1.71E+12,128,128,-1,-1,-1,-1,-4.14491573,-33.69319027,-37.838106,-16.62962526,-1,-1,-1,-1
1.71E+12,128,128,-1,-1,-1,-1,-4.145788211,-33.69100425,-37.83679247,-16.62853799,-1,-1,-1,-1
1.71E+12,128,128,-1,-1,-1,-1,-4.146670138,-33.68880767,-37.8354778,-16.62746928,-1,-1,-1,-1
1.71E+12,128,128,-1,-1,-1,-1,-4.147561581,-33.68660223,-37.83416381,-16.62641913,-1,-1,-1,-1
1.71E+12,128,128,-1,-1,-1,-1,-4.148462534,-33.68438948,-37.83285202,-16.62538744,-1,-1,-1,-1
1.71E+12,128,128,-1,-1,-1,-1,-4.149372922,-33.68217086,-37.83154378,-16.6243741,-1,-1,-1,-1
1.71E+12,128,128,-1,-1,-1,-1,-4.150292606,-33.67994781,-37.83024041,-16.62337903,-1,-1,-1,-1
1.71E+12,128,128,-1,-1,-1,-1,-4.151221367,-33.67772189,-37.82894326,-16.62240213,-1,-1,-1,-1
1.71E+12,128,128,-1,-1,-1,-1,-4.152158917,-33.67549481,-37.82765372,-16.62144319,-1,-1,-1,-1
1.71E+12,128,128,-1,-1,-1,-1,-4.153104896,-33.67326842,-37.82637331,-16.6205019,-1,-1,-1,-1
1.71E+12,128,128,-1,-1,-1,-1,-4.154058877,-33.67104465,-37.82510353,-16.61957801,-1,-1,-1,-1
1.71E+12,128,128,-1,-1,-1,-1,-4.155020366,-33.66882535,-37.82384572,-16.61867121,-1,-1,-1,-1
1.71E+12,128,128,-1,-1,-1,-1,-4.155988798,-33.66661217,-37.82260097,-16.61778111,-1,-1,-1,-1
1.71E+12,128,128,-1,-1,-1,-1,-4.156963533,-33.66440656,-37.82137009,-16.61690727,-1,-1,-1,-1
1.71E+12,128,128,-1,-1,-1,-1,-4.15794386,-33.66220988,-37.82015374,-16.61604915,-1,-1,-1,-1
1.71E+12,128,128,-1,-1,-1,-1,-4.158928994,-33.66002354,-37.81895254,-16.61520626,-1,-1,-1,-1
1.71E+12,128,128,-1,-1,-1,-1,-4.159918069,-33.65784902,-37.81776709,-16.61437811,-1,-1,-1,-1
1.71E+12,128,128,-1,-1,-1,-1,-4.160910161,-33.65568791,-37.81659807,-16.61356417,-1,-1,-1,-1
1.71E+12,128,128,-1,-1,-1,-1,-4.16190429,-33.65354185,-37.81544614,-16.61276377,-1,-1,-1,-1
1.71E+12,128,128,-1,-1,-1,-1,-4.16289943,-33.65141247,-37.8143119,-16.61197626,-1,-1,-1,-1
1.71E+12,128,128,-1,-1,-1,-1,-4.163894492,-33.64930124,-37.81319573,-16.61120101,-1,-1,-1,-1
1.71E+12,128,128,-1,-1,-1,-1,-4.164888332,-33.64720939,-37.81209773,-16.61043738,-1,-1,-1,-1
1.71E+12,128,128,-1,-1,-1,-1,-4.165879753,-33.64513803,-37.81101778,-16.60968465,-1,-1,-1,-1
1.71E+12,128,128,-1,-1,-1,-1,-4.166867506,-33.6430882,-37.80995571,-16.6089421,-1,-1,-1,-1
1.71E+12,128,128,-1,-1,-1,-1,-4.167850298,-33.64106098,-37.80891128,-16.60820894,-1,-1,-1,-1
1.71E+12,128,128,-1,-1,-1,-1,-4.168826815,-33.6390575,-37.80788431,-16.60748433,-1,-1,-1,-1
1.71E+12,128,128,-1,-1,-1,-1,-4.16979571,-33.63707901,-37.80687472,-16.60676741,-1,-1,-1,-1
1.71E+12,128,128,-1,-1,-1,-1,-4.170755604,-33.63512681,-37.80588241,-16.60605735,-1,-1,-1,-1
1.71E+12,128,128,-1,-1,-1,-1,-4.171705093,-33.63320201,-37.80490711,-16.60535334,-1,-1,-1,-1
1.71E+12,128,128,-1,-1,-1,-1,-4.172642742,-33.63130553,-37.80394827,-16.60465449,-1,-1,-1,-1
1.71E+12,128,128,-1,-1,-1,-1,-4.173567093,-33.62943803,-37.80300512,-16.60395982,-1,-1,-1,-1
1.71E+12,128,128,-1,-1,-1,-1,-4.174476683,-33.62760008,-37.80207676,-16.60326833,-1,-1,-1,-1
1.71E+12,128,128,-1,-1,-1,-1,-4.175370047,-33.62579222,-37.80116226,-16.60257909,-1,-1,-1,-1
1.71E+12,128,128,-1,-1,-1,-1,-4.176245728,-33.62401499,-37.80026072,-16.60189114,-1,-1,-1,-1
1.71E+12,128,128,-1,-1,-1,-1,-4.177102272,-33.62226901,-37.79937128,-16.60120348,-1,-1,-1,-1
1.71E+12,128,128,-1,-1,-1,-1,-4.177938227,-33.62055493,-37.79849316,-16.60051511,-1,-1,-1,-1
1.71E+12,128,128,-1,-1,-1,-1,-4.178752145,-33.6188734,-37.79762555,-16.59982514,-1,-1,-1,-1
1.71E+12,128,128,-1,-1,-1,-1,-4.17954258,-33.61722487,-37.79676745,-16.59913266,-1,-1,-1,-1
1.71E+12,128,128,-1,-1,-1,-1,-4.180308106,-33.6156095,-37.7959176,-16.59843668,-1,-1,-1,-1
1.71E+12,128,128,-1,-1,-1,-1,-4.181047304,-33.61402726,-37.79507457,-16.5977363,-1,-1,-1,-1
1.71E+12,128,128,-1,-1,-1,-1,-4.181758786,-33.61247806,-37.79423684,-16.59703055,-1,-1,-1,-1
1.71E+12,128,128,-1,-1,-1,-1,-4.182441207,-33.61096174,-37.79340295,-16.59631847,-1,-1,-1,-1
1.71E+12,128,128,-1,-1,-1,-1,-4.183093245,-33.60947825,-37.79257149,-16.59559912,-1,-1,-1,-1
1.71E+12,128,128,-1,-1,-1,-1,-4.1837136,-33.60802752,-37.79174112,-16.5948716,-1,-1,-1,-1
1.71E+12,128,128,-1,-1,-1,-1,-4.184301011,-33.60660956,-37.79091057,-16.59413507,-1,-1,-1,-1
1.71E+12,128,128,-1,-1,-1,-1,-4.184854252,-33.60522422,-37.79007847,-16.5933887,-1,-1,-1,-1
1.71E+12,128,128,-1,-1,-1,-1,-4.185372137,-33.60387111,-37.78924325,-16.59263167,-1,-1,-1,-1
1.71E+12,128,128,-1,-1,-1,-1,-4.185853531,-33.60254954,-37.78840307,-16.59186324,-1,-1,-1,-1
1.71E+12,128,128,-1,-1,-1,-1,-4.186297345,-33.60125867,-37.78755601,-16.59108269,-1,-1,-1,-1
1.71E+12,128,128,-1,-1,-1,-1,-4.186702529,-33.59999761,-37.78670014,-16.59028924,-1,-1,-1,-1
1.71E+12,128,128,-1,-1,-1,-1,-4.18706808,-33.59876551,-37.78583359,-16.58948216,-1,-1,-1,-1
1.71E+12,128,128,-1,-1,-1,-1,-4.187393049,-33.59756156,-37.78495461,-16.58866085,-1,-1,-1,-1
1.71E+12,128,128,-1,-1,-1,-1,-4.187676545,-33.59638502,-37.78406156,-16.58782479,-1,-1,-1,-1
1.71E+12,128,128,-1,-1,-1,-1,-4.187917723,-33.59523513,-37.78315285,-16.58697343,-1,-1,-1,-1
1.71E+12,128,128,-1,-1,-1,-1,-4.188115787,-33.59411098,-37.78222677,-16.58610623,-1,-1,-1,-1
1.71E+12,128,128,-1,-1,-1,-1,-4.188269987,-33.59301141,-37.7812814,-16.58522267,-1,-1,-1,-1
1.71E+12,128,128,-1,-1,-1,-1,-4.188379626,-33.59193508,-37.78031471,-16.58432224,-1,-1,-1,-1
1.71E+12,128,128,-1,-1,-1,-1,-4.188444067,-33.59088055,-37.77932462,-16.58340452,-1,-1,-1,-1
1.71E+12,128,128,-1,-1,-1,-1,-4.188462735,-33.58984641,-37.77830914,-16.58246917,-1,-1,-1,-1
1.71E+12,128,128,-1,-1,-1,-1,-4.188435106,-33.58883129,-37.77726639,-16.58151583,-1,-1,-1,-1
1.71E+12,128,128,-1,-1,-1,-1,-4.188360706,-33.58783392,-37.77619463,-16.58054431,-1,-1,-1,-1
1.71E+12,128,128,-1,-1,-1,-1,-4.188239119,-33.58685308,-37.7750922,-16.57955448,-1,-1,-1,-1
1.71E+12,128,128,-1,-1,-1,-1,-4.188069978,-33.58588742,-37.7739574,-16.57854628,-1,-1,-1,-1
1.71E+12,128,128,-1,-1,-1,-1,-4.187852968,-33.58493539,-37.77278836,-16.57751969,-1,-1,-1,-1
1.71E+12,128,128,-1,-1,-1,-1,-4.187587834,-33.58399518,-37.77158301,-16.57647463,-1,-1,-1,-1
1.71E+12,128,128,-1,-1,-1,-1,-4.187274375,-33.58306486,-37.77033924,-16.57541108,-1,-1,-1,-1
1.71E+12,128,128,-1,-1,-1,-1,-4.186912449,-33.58214248,-37.76905493,-16.57432907,-1,-1,-1,-1
1.71E+12,128,128,-1,-1,-1,-1,-4.186501978,-33.58122614,-37.76772811,-16.57322868,-1,-1,-1,-1
1.71E+12,128,128,-1,-1,-1,-1,-4.186042948,-33.58031405,-37.766357,-16.57211,-1,-1,-1,-1
1.71E+12,128,128,-1,-1,-1,-1,-4.185535398,-33.57940457,-37.76493997,-16.57097324,-1,-1,-1,-1
1.71E+12,128,128,-1,-1,-1,-1,-4.18497942,-33.57849608,-37.7634755,-16.56981873,-1,-1,-1,-1
1.71E+12,128,128,-1,-1,-1,-1,-4.184375166,-33.57758682,-37.76196199,-16.56864687,-1,-1,-1,-1
1.71E+12,128,128,-1,-1,-1,-1,-4.183722851,-33.57667487,-37.76039772,-16.567458,-1,-1,-1,-1
1.71E+12,128,128,-1,-1,-1,-1,-4.183022742,-33.57575816,-37.7587809,-16.56625252,-1,-1,-1,-1
1.71E+12,128,128,-1,-1,-1,-1,-4.182275156,-33.57483461,-37.75710977,-16.5650309,-1,-1,-1,-1
1.71E+12,128,128,-1,-1,-1,-1,-4.181480482,-33.57390219,-37.75538267,-16.56379362,-1,-1,-1,-1
1.71E+12,128,128,-1,-1,-1,-1,-4.180639162,-33.57295899,-37.75359815,-16.56254115,-1,-1,-1,-1
1.71E+12,128,128,-1,-1,-1,-1,-4.179751694,-33.57200326,-37.75175495,-16.56127408,-1,-1,-1,-1
1.71E+12,128,128,-1,-1,-1,-1,-4.178818638,-33.57103339,-37.74985203,-16.55999305,-1,-1,-1,-1
1.71E+12,128,128,-1,-1,-1,-1,-4.177840617,-33.57004779,-37.74788841,-16.55869879,-1,-1,-1,-1
1.71E+12,128,128,-1,-1,-1,-1,-4.176818314,-33.56904474,-37.74586305,-16.557392,-1,-1,-1,-1
1.71E+12,128,128,-1,-1,-1,-1,-4.175752461,-33.56802238,-37.74377484,-16.55607344,-1,-1,-1,-1
1.71E+12,128,128,-1,-1,-1,-1,-4.174643852,-33.56697885,-37.7416227,-16.5547439,-1,-1,-1,-1
1.71E+12,128,128,-1,-1,-1,-1,-4.173493339,-33.56591236,-37.7394057,-16.5534041,-1,-1,-1,-1
1.71E+12,128,128,-1,-1,-1,-1,-4.172301808,-33.5648213,-37.7371231,-16.55205479,-1,-1,-1,-1
1.71E+12,128,128,-1,-1,-1,-1,-4.171070183,-33.56370421,-37.7347744,-16.55069677,-1,-1,-1,-1
1.71E+12,128,128,-1,-1,-1,-1,-4.169799444,-33.56255995,-37.73235939,-16.54933083,-1,-1,-1,-1
1.71E+12,128,128,-1,-1,-1,-1,-4.168490622,-33.56138748,-37.72987811,-16.5479578,-1,-1,-1,-1
1.71E+12,128,128,-1,-1,-1,-1,-4.167144798,-33.5601858,-37.7273306,-16.54657851,-1,-1,-1,-1
1.71E+12,128,128,-1,-1,-1,-1,-4.165763111,-33.55895377,-37.72471688,-16.54519382,-1,-1,-1,-1
1.71E+12,128,128,-1,-1,-1,-1,-4.164346748,-33.55769019,-37.72203693,-16.54380458,-1,-1,-1,-1
1.71E+12,128,128,-1,-1,-1,-1,-4.162896936,-33.55639393,-37.71929087,-16.54241165,-1,-1,-1,-1
1.71E+12,128,128,-1,-1,-1,-1,-4.161414953,-33.55506401,-37.71647896,-16.54101585,-1,-1,-1,-1
1.71E+12,128,128,-1,-1,-1,-1,-4.159902115,-33.5536996,-37.71360171,-16.53961798,-1,-1,-1,-1
1.71E+12,128,128,-1,-1,-1,-1,-4.158359783,-33.55230008,-37.71065987,-16.53821885,-1,-1,-1,-1
1.71E+12,128,128,-1,-1,-1,-1,-4.15678937,-33.55086508,-37.70765445,-16.53681925,-1,-1,-1,-1
1.71E+12,128,128,-1,-1,-1,-1,-4.15519232,-33.54939431,-37.70458663,-16.53541993,-1,-1,-1,-1
1.71E+12,128,128,-1,-1,-1,-1,-4.15357011,-33.54788747,-37.70145758,-16.53402167,-1,-1,-1,-1
1.71E+12,128,128,-1,-1,-1,-1,-4.151924259,-33.54634414,-37.6982684,-16.53262516,-1,-1,-1,-1
1.71E+12,128,128,-1,-1,-1,-1,-4.150256313,-33.54476395,-37.69502026,-16.53123111,-1,-1,-1,-1
1.71E+12,128,128,-1,-1,-1,-1,-4.148567846,-33.54314665,-37.6917145,-16.52984026,-1,-1,-1,-1
1.71E+12,128,128,-1,-1,-1,-1,-4.146860458,-33.54149222,-37.68835268,-16.52845329,-1,-1,-1,-1
1.71E+12,128,128,-1,-1,-1,-1,-4.145135771,-33.53980084,-37.68493661,-16.52707085,-1,-1,-1,-1
1.71E+12,128,128,-1,-1,-1,-1,-4.14339543,-33.53807293,-37.68146836,-16.52569356,-1,-1,-1,-1
1.71E+12,128,128,-1,-1,-1,-1,-4.141641104,-33.53630905,-37.67795015,-16.52432199,-1,-1,-1,-1
1.71E+12,128,128,-1,-1,-1,-1,-4.139874481,-33.53450977,-37.67438425,-16.52295671,-1,-1,-1,-1
1.71E+12,128,128,-1,-1,-1,-1,-4.138097276,-33.53267552,-37.6707728,-16.52159819,-1,-1,-1,-1
1.71E+12,128,128,-1,-1,-1,-1,-4.136311222,-33.53080665,-37.66711787,-16.52024686,-1,-1,-1,-1
1.71E+12,128,128,-1,-1,-1,-1,-4.134518062,-33.52890355,-37.66342161,-16.51890315,-1,-1,-1,-1
1.71E+12,128,128,-1,-1,-1,-1,-4.132719556,-33.52696676,-37.65968632,-16.51756739,-1,-1,-1,-1
1.71E+12,128,128,-1,-1,-1,-1,-4.130917487,-33.52499703,-37.65591452,-16.51623982,-1,-1,-1,-1
1.71E+12,128,128,-1,-1,-1,-1,-4.129113657,-33.5229953,-37.65210896,-16.51492072,-1,-1,-1,-1
1.71E+12,128,128,-1,-1,-1,-1,-4.127309883,-33.52096271,-37.6482726,-16.51361038,-1,-1,-1,-1
1.71E+12,128,128,-1,-1,-1,-1,-4.125507989,-33.51890055,-37.64440854,-16.51230904,-1,-1,-1,-1
1.71E+12,128,128,-1,-1,-1,-1,-4.123709754,-33.51680987,-37.64051962,-16.51101692,-1,-1,-1,-1
1.71E+12,128,128,-1,-1,-1,-1,-4.121916916,-33.51469154,-37.63660845,-16.5097342,-1,-1,-1,-1
1.71E+12,128,128,-1,-1,-1,-1,-4.120131231,-33.51254651,-37.63267774,-16.50846095,-1,-1,-1,-1
1.71E+12,128,128,-1,-1,-1,-1,-4.118354479,-33.51037595,-37.62873043,-16.50719717,-1,-1,-1,-1
1.71E+12,128,128,-1,-1,-1,-1,-4.116588453,-33.50818135,-37.6247698,-16.50594292,-1,-1,-1,-1
1.71E+12,128,128,-1,-1,-1,-1,-4.114834945,-33.50596434,-37.62079928,-16.50469825,-1,-1,-1,-1
1.71E+12,128,128,-1,-1,-1,-1,-4.113095742,-33.50372658,-37.61682232,-16.50346313,-1,-1,-1,-1
1.71E+12,128,128,-1,-1,-1,-1,-4.111372634,-33.50146967,-37.6128423,-16.50223753,-1,-1,-1,-1
1.71E+12,128,128,-1,-1,-1,-1,-4.109667409,-33.49919503,-37.60886244,-16.50102131,-1,-1,-1,-1
1.71E+12,128,128,-1,-1,-1,-1,-4.107981853,-33.49690396,-37.60488581,-16.49981428,-1,-1,-1,-1
1.71E+12,128,128,-1,-1,-1,-1,-4.106317752,-33.49459775,-37.60091551,-16.4986162,-1,-1,-1,-1
1.71E+12,128,128,-1,-1,-1,-1,-4.104676893,-33.4922778,-37.59695469,-16.49742681,-1,-1,-1,-1
1.71E+12,128,128,-1,-1,-1,-1,-4.10306105,-33.48994568,-37.59300673,-16.4962459,-1,-1,-1,-1
1.71E+12,128,128,-1,-1,-1,-1,-4.101471986,-33.48760321,-37.5890752,-16.49507323,-1,-1,-1,-1
1.71E+12,128,128,-1,-1,-1,-1,-4.09991145,-33.48525229,-37.58516374,-16.49390849,-1,-1,-1,-1
1.71E+12,128,128,-1,-1,-1,-1,-4.09838117,-33.48289478,-37.58127595,-16.4927514,-1,-1,-1,-1
1.71E+12,128,128,-1,-1,-1,-1,-4.096882856,-33.48053237,-37.57741522,-16.4916016,-1,-1,-1,-1
1.71E+12,128,128,-1,-1,-1,-1,-4.095418198,-33.47816654,-37.57358474,-16.49045863,-1,-1,-1,-1
1.71E+12,128,128,-1,-1,-1,-1,-4.093988861,-33.47579862,-37.56978748,-16.48932204,-1,-1,-1,-1
1.71E+12,128,128,-1,-1,-1,-1,-4.092596483,-33.47342993,-37.56602642,-16.48819139,-1,-1,-1,-1
1.71E+12,128,128,-1,-1,-1,-1,-4.091242682,-33.47106191,-37.56230459,-16.48706622,-1,-1,-1,-1
1.71E+12,128,128,-1,-1,-1,-1,-4.089929044,-33.46869615,-37.55862519,-16.48594595,-1,-1,-1,-1
1.71E+12,128,128,-1,-1,-1,-1,-4.088657119,-33.46633433,-37.55499144,-16.48483003,-1,-1,-1,-1
1.71E+12,128,128,-1,-1,-1,-1,-4.08742845,-33.46397806,-37.55140651,-16.48371795,-1,-1,-1,-1
1.71E+12,128,128,-1,-1,-1,-1,-4.086244538,-33.46162888,-37.54787342,-16.4826092,-1,-1,-1,-1
1.71E+12,128,128,-1,-1,-1,-1,-4.085106838,-33.45928824,-37.54439508,-16.48150323,-1,-1,-1,-1
1.71E+12,128,128,-1,-1,-1,-1,-4.084016806,-33.4569574,-37.5409742,-16.48039955,-1,-1,-1,-1
1.71E+12,128,128,-1,-1,-1,-1,-4.082975939,-33.45463749,-37.53761342,-16.47929764,-1,-1,-1,-1
1.71E+12,128,128,-1,-1,-1,-1,-4.081985799,-33.4523297,-37.5343155,-16.47819691,-1,-1,-1,-1
1.71E+12,128,128,-1,-1,-1,-1,-4.081047981,-33.45003544,-37.53108342,-16.47709677,-1,-1,-1,-1
1.71E+12,128,128,-1,-1,-1,-1,-4.080164118,-33.44775624,-37.52792036,-16.47599664,-1,-1,-1,-1
1.71E+12,128,128,-1,-1,-1,-1,-4.079335877,-33.44549376,-37.52482964,-16.47489598,-1,-1,-1,-1
1.71E+12,128,128,-1,-1,-1,-1,-4.078564892,-33.44324972,-37.52181461,-16.47379425,-1,-1,-1,-1
1.71E+12,128,128,-1,-1,-1,-1,-4.077852695,-33.44102591,-37.51887861,-16.47269088,-1,-1,-1,-1
1.71E+12,128,128,-1,-1,-1,-1,-4.077200663,-33.43882418,-37.51602484,-16.47158527,-1,-1,-1,-1
1.71E+12,128,128,-1,-1,-1,-1,-4.076609986,-33.43664636,-37.51325635,-16.47047679,-1,-1,-1,-1
1.71E+12,128,128,-1,-1,-1,-1,-4.076081638,-33.43449413,-37.51057576,-16.46936477,-1,-1,-1,-1
1.71E+12,128,128,-1,-1,-1,-1,-4.075616339,-33.43236877,-37.50798511,-16.46824854,-1,-1,-1,-1
1.71E+12,128,128,-1,-1,-1,-1,-4.075214395,-33.43027138,-37.50548578,-16.46712742,-1,-1,-1,-1
1.71E+12,128,128,-1,-1,-1,-1,-4.074875591,-33.42820313,-37.50307872,-16.46600071,-1,-1,-1,-1
1.71E+12,128,128,-1,-1,-1,-1,-4.074599407,-33.42616502,-37.50076443,-16.4648677,-1,-1,-1,-1
1.71E+12,128,128,-1,-1,-1,-1,-4.07438532,-33.42415763,-37.49854295,-16.46372766,-1,-1,-1,-1
1.71E+12,128,128,-1,-1,-1,-1,-4.074232904,-33.42218107,-37.49641397,-16.46257974,-1,-1,-1,-1
1.71E+12,128,128,-1,-1,-1,-1,-4.074141831,-33.42023504,-37.49437687,-16.46142311,-1,-1,-1,-1
1.71E+12,128,128,-1,-1,-1,-1,-4.074111816,-33.41831903,-37.49243084,-16.46025694,-1,-1,-1,-1
1.71E+12,128,128,-1,-1,-1,-1,-4.07414258,-33.41643245,-37.49057503,-16.45908045,-1,-1,-1,-1
1.71E+12,128,128,-1,-1,-1,-1,-4.074233842,-33.41457473,-37.48880857,-16.45789296,-1,-1,-1,-1
1.71E+12,128,128,-1,-1,-1,-1,-4.074385306,-33.41274537,-37.48713068,-16.45669379,-1,-1,-1,-1
1.71E+12,128,128,-1,-1,-1,-1,-4.07459662,-33.41094396,-37.48554058,-16.4554823,-1,-1,-1,-1
1.71E+12,128,128,-1,-1,-1,-1,-4.074867348,-33.4091701,-37.48403745,-16.45425791,-1,-1,-1,-1
1.71E+12,128,128,-1,-1,-1,-1,-4.075196969,-33.40742331,-37.48262028,-16.45302015,-1,-1,-1,-1
1.71E+12,128,128,-1,-1,-1,-1,-4.075584892,-33.40570296,-37.48128786,-16.45176867,-1,-1,-1,-1
1.71E+12,128,128,-1,-1,-1,-1,-4.076030457,-33.40400829,-37.48003875,-16.4505031,-1,-1,-1,-1
1.71E+12,128,128,-1,-1,-1,-1,-4.076532919,-33.40233851,-37.47887142,-16.44922304,-1,-1,-1,-1
1.71E+12,128,128,-1,-1,-1,-1,-4.077091453,-33.40069292,-37.47778437,-16.44792811,-1,-1,-1,-1
1.71E+12,128,128,-1,-1,-1,-1,-4.077705165,-33.39907104,-37.4767762,-16.44661803,-1,-1,-1,-1
1.71E+12,128,128,-1,-1,-1,-1,-4.078373088,-33.39747251,-37.4758456,-16.44529249,-1,-1,-1,-1
1.71E+12,128,128,-1,-1,-1,-1,-4.079094179,-33.39589697,-37.47499114,-16.44395126,-1,-1,-1,-1
1.71E+12,128,128,-1,-1,-1,-1,-4.079867324,-33.39434387,-37.47421119,-16.44259415,-1,-1,-1,-1
1.71E+12,128,128,-1,-1,-1,-1,-4.080691329,-33.39281244,-37.47350376,-16.44122099,-1,-1,-1,-1
1.71E+12,128,128,-1,-1,-1,-1,-4.081564915,-33.39130166,-37.47286658,-16.43983167,-1,-1,-1,-1
1.71E+12,128,128,-1,-1,-1,-1,-4.082486725,-33.38981046,-37.47229718,-16.43842606,-1,-1,-1,-1
1.71E+12,128,128,-1,-1,-1,-1,-4.083455332,-33.38833777,-37.4717931,-16.43700398,-1,-1,-1,-1
1.71E+12,128,128,-1,-1,-1,-1,-4.084469242,-33.3868827,-37.47135194,-16.43556528,-1,-1,-1,-1
1.71E+12,128,128,-1,-1,-1,-1,-4.085526877,-33.38544452,-37.4709714,-16.43410993,-1,-1,-1,-1
1.71E+12,128,128,-1,-1,-1,-1,-4.086626594,-33.38402257,-37.47064916,-16.43263789,-1,-1,-1,-1
1.71E+12,128,128,-1,-1,-1,-1,-4.087766691,-33.38261605,-37.47038274,-16.43114909,-1,-1,-1,-1
1.71E+12,128,128,-1,-1,-1,-1,-4.088945409,-33.38122403,-37.47016944,-16.42964343,-1,-1,-1,-1
1.71E+12,128,128,-1,-1,-1,-1,-4.090160929,-33.37984536,-37.47000629,-16.42812079,-1,-1,-1,-1
1.71E+12,128,128,-1,-1,-1,-1,-4.091411372,-33.37847875,-37.46989012,-16.42658116,-1,-1,-1,-1
1.71E+12,128,128,-1,-1,-1,-1,-4.092694814,-33.37712288,-37.46981769,-16.42502461,-1,-1,-1,-1
1.71E+12,128,128,-1,-1,-1,-1,-4.094009294,-33.37577656,-37.46978585,-16.42345119,-1,-1,-1,-1
1.71E+12,128,128,-1,-1,-1,-1,-4.095352829,-33.37443876,-37.46979159,-16.42186092,-1,-1,-1,-1
1.71E+12,128,128,-1,-1,-1,-1,-4.096723413,-33.37310864,-37.46983205,-16.4202538,-1,-1,-1,-1
1.71E+12,128,128,-1,-1,-1,-1,-4.09811901,-33.37178541,-37.46990442,-16.41862992,-1,-1,-1,-1
1.71E+12,128,128,-1,-1,-1,-1,-4.099537572,-33.37046821,-37.47000578,-16.41698936,-1,-1,-1,-1
1.71E+12,128,128,-1,-1,-1,-1,-4.100977032,-33.36915601,-37.47013304,-16.41533229,-1,-1,-1,-1
1.71E+12,128,128,-1,-1,-1,-1,-4.102435313,-33.36784764,-37.47028295,-16.41365891,-1,-1,-1,-1
1.71E+12,128,128,-1,-1,-1,-1,-4.103910351,-33.36654187,-37.47045222,-16.41196934,-1,-1,-1,-1
1.71E+12,128,128,-1,-1,-1,-1,-4.105400092,-33.36523762,-37.47063771,-16.41026374,-1,-1,-1,-1
1.71E+12,128,128,-1,-1,-1,-1,-4.106902482,-33.36393402,-37.4708365,-16.40854232,-1,-1,-1,-1
1.71E+12,128,128,-1,-1,-1,-1,-4.108415485,-33.36263045,-37.47104593,-16.40680533,-1,-1,-1,-1
1.71E+12,128,128,-1,-1,-1,-1,-4.109937098,-33.36132639,-37.47126349,-16.40505302,-1,-1,-1,-1
1.71E+12,128,128,-1,-1,-1,-1,-4.111465344,-33.36002132,-37.47148666,-16.40328574,-1,-1,-1,-1
1.71E+12,128,128,-1,-1,-1,-1,-4.112998276,-33.3587146,-37.47171288,-16.40150384,-1,-1,-1,-1
1.71E+12,128,128,-1,-1,-1,-1,-4.114533983,-33.35740545,-37.47193943,-16.39970762,-1,-1,-1,-1
1.71E+12,128,128,-1,-1,-1,-1,-4.116070598,-33.356093,-37.4721636,-16.39789745,-1,-1,-1,-1
1.71E+12,128,128,-1,-1,-1,-1,-4.117606295,-33.35477647,-37.47238276,-16.3960737,-1,-1,-1,-1
1.71E+12,128,128,-1,-1,-1,-1,-4.119139301,-33.35345522,-37.47259452,-16.39423674,-1,-1,-1,-1
1.71E+12,128,128,-1,-1,-1,-1,-4.120667895,-33.35212892,-37.47279682,-16.39238696,-1,-1,-1,-1
1.71E+12,128,128,-1,-1,-1,-1,-4.122190419,-33.35079749,-37.47298791,-16.3905249,-1,-1,-1,-1
1.71E+12,128,128,-1,-1,-1,-1,-4.123705283,-33.34946092,-37.4731662,-16.38865112,-1,-1,-1,-1
1.71E+12,128,128,-1,-1,-1,-1,-4.125210958,-33.34811915,-37.47333011,-16.38676613,-1,-1,-1,-1
1.71E+12,128,128,-1,-1,-1,-1,-4.126706053,-33.34677213,-37.47347818,-16.38487046,-1,-1,-1,-1
1.71E+12,128,128,-1,-1,-1,-1,-4.128189303,-33.34541979,-37.47360909,-16.38296479,-1,-1,-1,-1
1.71E+12,128,128,-1,-1,-1,-1,-4.129659487,-33.34406214,-37.47372162,-16.38104973,-1,-1,-1,-1
1.71E+12,128,128,-1,-1,-1,-1,-4.131115427,-33.34269924,-37.47381467,-16.37912589,-1,-1,-1,-1
1.71E+12,128,128,-1,-1,-1,-1,-4.132556003,-33.34133127,-37.47388727,-16.37719388,-1,-1,-1,-1
1.71E+12,128,128,-1,-1,-1,-1,-4.133980155,-33.3399584,-37.47393855,-16.37525433,-1,-1,-1,-1
1.71E+12,128,128,-1,-1,-1,-1,-4.135386885,-33.33858082,-37.4739677,-16.37330786,-1,-1,-1,-1
1.71E+12,128,128,-1,-1,-1,-1,-4.136775266,-33.33719868,-37.47397394,-16.37135508,-1,-1,-1,-1
1.71E+12,128,128,-1,-1,-1,-1,-4.138144457,-33.33581214,-37.4739566,-16.36939657,-1,-1,-1,-1
1.71E+12,128,128,-1,-1,-1,-1,-4.139493703,-33.33442144,-37.47391514,-16.36743289,-1,-1,-1,-1
1.71E+12,128,128,-1,-1,-1,-1,-4.140822317,-33.33302693,-37.47384925,-16.36546464,-1,-1,-1,-1
1.71E+12,128,128,-1,-1,-1,-1,-4.142129684,-33.33162907,-37.47375876,-16.36349244,-1,-1,-1,-1
1.71E+12,128,128,-1,-1,-1,-1,-4.143415264,-33.33022841,-37.47364367,-16.36151691,-1,-1,-1,-1
1.71E+12,128,128,-1,-1,-1,-1,-4.144678592,-33.32882551,-37.4735041,-16.35953871,-1,-1,-1,-1
1.71E+12,128,128,-1,-1,-1,-1,-4.145919269,-33.32742097,-37.47334024,-16.35755847,-1,-1,-1,-1
1.71E+12,128,128,-1,-1,-1,-1,-4.147136969,-33.32601538,-37.47315235,-16.35557681,-1,-1,-1,-1
1.71E+12,128,128,-1,-1,-1,-1,-4.148331446,-33.32460929,-37.47294074,-16.35359432,-1,-1,-1,-1
1.71E+12,128,128,-1,-1,-1,-1,-4.149502535,-33.32320328,-37.47270581,-16.35161154,-1,-1,-1,-1
1.71E+12,128,128,-1,-1,-1,-1,-4.150650133,-33.32179798,-37.47244812,-16.3496291,-1,-1,-1,-1
1.71E+12,128,128,-1,-1,-1,-1,-4.151774195,-33.32039413,-37.47216833,-16.34764767,-1,-1,-1,-1
1.71E+12,128,128,-1,-1,-1,-1,-4.152874739,-33.31899251,-37.47186725,-16.34566786,-1,-1,-1,-1
1.71E+12,128,128,-1,-1,-1,-1,-4.153951851,-33.31759394,-37.47154579,-16.3436902,-1,-1,-1,-1
1.71E+12,128,128,-1,-1,-1,-1,-4.15500568,-33.31619926,-37.47120494,-16.34171522,-1,-1,-1,-1
1.71E+12,128,128,-1,-1,-1,-1,-4.156036427,-33.31480927,-37.4708457,-16.33974352,-1,-1,-1,-1
1.71E+12,128,128,-1,-1,-1,-1,-4.157044334,-33.31342469,-37.47046903,-16.33777573,-1,-1,-1,-1
1.71E+12,128,128,-1,-1,-1,-1,-4.158029691,-33.31204624,-37.47007593,-16.33581239,-1,-1,-1,-1
1.71E+12,128,128,-1,-1,-1,-1,-4.158992823,-33.31067464,-37.46966747,-16.33385401,-1,-1,-1,-1
1.71E+12,128,128,-1,-1,-1,-1,-4.159934088,-33.30931066,-37.46924475,-16.33190116,-1,-1,-1,-1
1.71E+12,128,128,-1,-1,-1,-1,-4.160853879,-33.30795509,-37.46880897,-16.32995433,-1,-1,-1,-1
1.71E+12,128,128,-1,-1,-1,-1,-4.161752622,-33.30660871,-37.46836133,-16.32801397,-1,-1,-1,-1
1.71E+12,128,128,-1,-1,-1,-1,-4.162630774,-33.30527228,-37.46790305,-16.3260805,-1,-1,-1,-1
1.71E+12,128,128,-1,-1,-1,-1,-4.163488808,-33.30394653,-37.46743534,-16.32415441,-1,-1,-1,-1
1.71E+12,128,128,-1,-1,-1,-1,-4.164327214,-33.30263207,-37.46695928,-16.32223608,-1,-1,-1,-1
1.71E+12,128,128,-1,-1,-1,-1,-4.1651465,-33.30132943,-37.46647593,-16.32032592,-1,-1,-1,-1
1.71E+12,128,128,-1,-1,-1,-1,-4.165947176,-33.30003914,-37.46598632,-16.31842432,-1,-1,-1,-1
1.71E+12,128,128,-1,-1,-1,-1,-4.166729754,-33.29876165,-37.46549141,-16.31653164,-1,-1,-1,-1
1.71E+12,128,128,-1,-1,-1,-1,-4.167494758,-33.29749743,-37.46499219,-16.3146482,-1,-1,-1,-1
1.71E+12,128,128,-1,-1,-1,-1,-4.168242712,-33.29624692,-37.46448964,-16.31277422,-1,-1,-1,-1
1.71E+12,128,128,-1,-1,-1,-1,-4.16897413,-33.29501058,-37.46398471,-16.31091001,-1,-1,-1,-1
1.71E+12,128,128,-1,-1,-1,-1,-4.169689512,-33.29378879,-37.4634783,-16.30905586,-1,-1,-1,-1
1.71E+12,128,128,-1,-1,-1,-1,-4.170389346,-33.29258185,-37.4629712,-16.30721195,-1,-1,-1,-1
1.71E+12,128,128,-1,-1,-1,-1,-4.171074105,-33.29138994,-37.46246405,-16.30537849,-1,-1,-1,-1
1.71E+12,128,128,-1,-1,-1,-1,-4.171744253,-33.29021316,-37.46195742,-16.3035557,-1,-1,-1,-1
1.71E+12,128,128,-1,-1,-1,-1,-4.172400225,-33.28905155,-37.46145177,-16.30174375,-1,-1,-1,-1
1.71E+12,128,128,-1,-1,-1,-1,-4.173042432,-33.28790511,-37.46094754,-16.29994276,-1,-1,-1,-1
1.71E+12,128,128,-1,-1,-1,-1,-4.173671273,-33.28677381,-37.46044508,-16.29815276,-1,-1,-1,-1
1.71E+12,128,128,-1,-1,-1,-1,-4.174287123,-33.28565757,-37.45994469,-16.29637378,-1,-1,-1,-1
1.71E+12,128,128,-1,-1,-1,-1,-4.174890319,-33.28455628,-37.4594466,-16.29460586,-1,-1,-1,-1
1.71E+12,128,128,-1,-1,-1,-1,-4.175481161,-33.28346974,-37.4589509,-16.29284906,-1,-1,-1,-1
1.71E+12,128,128,-1,-1,-1,-1,-4.176059913,-33.28239763,-37.45845754,-16.29110344,-1,-1,-1,-1
1.71E+12,128,128,-1,-1,-1,-1,-4.176626807,-33.28133951,-37.45796632,-16.28936896,-1,-1,-1,-1
1.71E+12,128,128,-1,-1,-1,-1,-4.177182033,-33.28029488,-37.45747692,-16.28764558,-1,-1,-1,-1
1.71E+12,128,128,-1,-1,-1,-1,-4.177725737,-33.27926322,-37.45698896,-16.28593324,-1,-1,-1,-1
1.71E+12,128,128,-1,-1,-1,-1,-4.178258035,-33.27824397,-37.456502,-16.28423181,-1,-1,-1,-1
1.71E+12,128,128,-1,-1,-1,-1,-4.178779001,-33.27723656,-37.45601556,-16.28254113,-1,-1,-1,-1
1.71E+12,128,128,-1,-1,-1,-1,-4.179288663,-33.27624045,-37.45552912,-16.28086109,-1,-1,-1,-1
1.71E+12,128,128,-1,-1,-1,-1,-4.179787024,-33.27525509,-37.45504211,-16.27919155,-1,-1,-1,-1
1.71E+12,128,128,-1,-1,-1,-1,-4.180274042,-33.27427978,-37.45455383,-16.27753237,-1,-1,-1,-1
1.71E+12,128,128,-1,-1,-1,-1,-4.180749631,-33.27331376,-37.45406339,-16.27588343,-1,-1,-1,-1
1.71E+12,128,128,-1,-1,-1,-1,-4.181213668,-33.27235614,-37.4535698,-16.27424458,-1,-1,-1,-1
1.71E+12,128,128,-1,-1,-1,-1,-4.181665989,-33.27140604,-37.45307203,-16.27261564,-1,-1,-1,-1
1.71E+12,128,128,-1,-1,-1,-1,-4.182106388,-33.27046259,-37.45256898,-16.27099644,-1,-1,-1,-1
1.71E+12,128,128,-1,-1,-1,-1,-4.182534624,-33.26952492,-37.45205954,-16.26938674,-1,-1,-1,-1
1.71E+12,128,128,-1,-1,-1,-1,-4.182950422,-33.26859215,-37.45154257,-16.2677863,-1,-1,-1,-1
1.71E+12,128,128,-1,-1,-1,-1,-4.18335348,-33.26766342,-37.4510169,-16.26619489,-1,-1,-1,-1
1.71E+12,128,128,-1,-1,-1,-1,-4.183743473,-33.26673783,-37.4504813,-16.26461227,-1,-1,-1,-1
1.71E+12,128,128,-1,-1,-1,-1,-4.184120047,-33.26581436,-37.44993441,-16.26303822,-1,-1,-1,-1
1.71E+12,128,128,-1,-1,-1,-1,-4.184482825,-33.26489198,-37.4493748,-16.26147255,-1,-1,-1,-1
1.71E+12,128,128,-1,-1,-1,-1,-4.184831398,-33.26396963,-37.44880103,-16.25991503,-1,-1,-1,-1
1.71E+12,128,128,-1,-1,-1,-1,-4.185165327,-33.26304628,-37.4482116,-16.25836545,-1,-1,-1,-1
1.71E+12,128,128,-1,-1,-1,-1,-4.185484153,-33.26212093,-37.44760508,-16.25682361,-1,-1,-1,-1
1.71E+12,128,128,-1,-1,-1,-1,-4.185787388,-33.26119263,-37.44698002,-16.25528929,-1,-1,-1,-1
1.71E+12,128,128,-1,-1,-1,-1,-4.186074515,-33.26026045,-37.44633496,-16.2537623,-1,-1,-1,-1
1.71E+12,128,128,-1,-1,-1,-1,-4.186344995,-33.25932345,-37.44566844,-16.25224243,-1,-1,-1,-1
1.71E+12,128,128,-1,-1,-1,-1,-4.186598278,-33.25838064,-37.44497892,-16.25072948,-1,-1,-1,-1
1.71E+12,128,128,-1,-1,-1,-1,-4.186833921,-33.25743106,-37.44426498,-16.2492232,-1,-1,-1,-1
1.71E+12,128,128,-1,-1,-1,-1,-4.187051586,-33.25647374,-37.44352533,-16.24772337,-1,-1,-1,-1
1.71E+12,128,128,-1,-1,-1,-1,-4.187250938,-33.25550758,-37.44275852,-16.24622979,-1,-1,-1,-1
1.71E+12,128,128,-1,-1,-1,-1,-4.18743164,-33.25453134,-37.44196298,-16.24474222,-1,-1,-1,-1
1.71E+12,128,128,-1,-1,-1,-1,-4.187593357,-33.25354374,-37.4411371,-16.24326046,-1,-1,-1,-1
1.71E+12,128,128,-1,-1,-1,-1,-4.187735766,-33.25254359,-37.44027936,-16.24178426,-1,-1,-1,-1
1.71E+12,128,128,-1,-1,-1,-1,-4.187858559,-33.25152989,-37.43938845,-16.24031336,-1,-1,-1,-1
1.71E+12,128,128,-1,-1,-1,-1,-4.187961434,-33.25050183,-37.43846326,-16.23884762,-1,-1,-1,-1
1.71E+12,128,128,-1,-1,-1,-1,-4.1880441,-33.24945874,-37.43750284,-16.23738692,-1,-1,-1,-1
1.71E+12,128,128,-1,-1,-1,-1,-4.188106293,-33.24839991,-37.43650621,-16.23593109,-1,-1,-1,-1
1.71E+12,128,128,-1,-1,-1,-1,-4.188147771,-33.24732453,-37.4354723,-16.23448008,-1,-1,-1,-1
1.71E+12,128,128,-1,-1,-1,-1,-4.188168318,-33.24623159,-37.43439991,-16.23303379,-1,-1,-1,-1
1.71E+12,128,128,-1,-1,-1,-1,-4.18816775,-33.24512004,-37.43328779,-16.23159218,-1,-1,-1,-1
1.71E+12,128,128,-1,-1,-1,-1,-4.188145917,-33.24398892,-37.43213483,-16.2301552,-1,-1,-1,-1
1.71E+12,128,128,-1,-1,-1,-1,-4.188102722,-33.24283741,-37.43094013,-16.22872279,-1,-1,-1,-1
1.71E+12,128,128,-1,-1,-1,-1,-4.188038112,-33.24166497,-37.42970308,-16.22729487,-1,-1,-1,-1
1.71E+12,128,128,-1,-1,-1,-1,-4.187952073,-33.24047123,-37.4284233,-16.22587143,-1,-1,-1,-1
1.71E+12,128,128,-1,-1,-1,-1,-4.187844645,-33.23925588,-37.42710052,-16.22445248,-1,-1,-1,-1
1.71E+12,128,128,-1,-1,-1,-1,-4.187715914,-33.23801854,-37.42573446,-16.22303804,-1,-1,-1,-1
1.71E+12,128,128,-1,-1,-1,-1,-4.18756601,-33.23675874,-37.42432475,-16.22162818,-1,-1,-1,-1
1.71E+12,128,128,-1,-1,-1,-1,-4.187395112,-33.23547587,-37.42287098,-16.22022292,-1,-1,-1,-1
1.71E+12,128,128,-1,-1,-1,-1,-4.187203458,-33.2341693,-37.42137276,-16.21882228,-1,-1,-1,-1
1.71E+12,128,128,-1,-1,-1,-1,-4.186991348,-33.23283855,-37.4198299,-16.2174263,-1,-1,-1,-1
1.71E+12,128,128,-1,-1,-1,-1,-4.186759142,-33.23148333,-37.41824247,-16.21603498,-1,-1,-1,-1
1.71E+12,128,128,-1,-1,-1,-1,-4.186507267,-33.23010361,-37.41661088,-16.21464837,-1,-1,-1,-1
1.71E+12,128,128,-1,-1,-1,-1,-4.186236205,-33.22869953,-37.41493574,-16.2132666,-1,-1,-1,-1
1.71E+12,128,128,-1,-1,-1,-1,-4.185946498,-33.22727121,-37.4132177,-16.21188982,-1,-1,-1,-1
1.71E+12,128,128,-1,-1,-1,-1,-4.185638733,-33.22581866,-37.41145739,-16.21051819,-1,-1,-1,-1
1.71E+12,128,128,-1,-1,-1,-1,-4.185313535,-33.22434175,-37.40965529,-16.20915187,-1,-1,-1,-1
1.71E+12,128,128,-1,-1,-1,-1,-4.184971553,-33.22284027,-37.40781182,-16.20779099,-1,-1,-1,-1
1.71E+12,128,128,-1,-1,-1,-1,-4.184613453,-33.22131404,-37.40592749,-16.20643564,-1,-1,-1,-1
1.71E+12,128,128,-1,-1,-1,-1,-4.184239943,-33.21976294,-37.40400289,-16.20508585,-1,-1,-1,-1
1.71E+12,128,128,-1,-1,-1,-1,-4.183851798,-33.21818696,-37.40203876,-16.20374169,-1,-1,-1,-1
1.71E+12,128,128,-1,-1,-1,-1,-4.183449812,-33.21658615,-37.40003597,-16.20240315,-1,-1,-1,-1
1.71E+12,128,128,-1,-1,-1,-1,-4.183034759,-33.21496055,-37.39799531,-16.20107027,-1,-1,-1,-1
1.71E+12,128,128,-1,-1,-1,-1,-4.182607347,-33.21331004,-37.39591739,-16.19974309,-1,-1,-1,-1
1.71E+12,128,128,-1,-1,-1,-1,-4.182168189,-33.21163423,-37.39380242,-16.19842167,-1,-1,-1,-1
1.71E+12,128,128,-1,-1,-1,-1,-4.181717841,-33.20993249,-37.39165034,-16.1971061,-1,-1,-1,-1
1.71E+12,128,128,-1,-1,-1,-1,-4.181256812,-33.20820411,-37.38946092,-16.19579643,-1,-1,-1,-1
1.71E+12,128,128,-1,-1,-1,-1,-4.180785588,-33.20644828,-37.38723386,-16.19449279,-1,-1,-1,-1
1.71E+12,128,128,-1,-1,-1,-1,-4.180304702,-33.2046641,-37.3849688,-16.19319534,-1,-1,-1,-1
1.71E+12,128,128,-1,-1,-1,-1,-4.17981479,-33.20285048,-37.38266527,-16.19190428,-1,-1,-1,-1
1.71E+12,128,128,-1,-1,-1,-1,-4.179316608,-33.20100613,-37.38032274,-16.19061983,-1,-1,-1,-1
1.71E+12,128,128,-1,-1,-1,-1,-4.178811049,-33.19912962,-37.37794067,-16.18934231,-1,-1,-1,-1
1.71E+12,128,128,-1,-1,-1,-1,-4.17829917,-33.19721974,-37.37551891,-16.188072,-1,-1,-1,-1
1.71E+12,128,128,-1,-1,-1,-1,-4.177782271,-33.1952755,-37.37305777,-16.1868092,-1,-1,-1,-1
1.71E+12,128,128,-1,-1,-1,-1,-4.177262084,-33.19329585,-37.37055794,-16.18555423,-1,-1,-1,-1
1.71E+12,128,128,-1,-1,-1,-1,-4.176740724,-33.19127968,-37.3680204,-16.18430747,-1,-1,-1,-1
1.71E+12,128,128,-1,-1,-1,-1,-4.176220388,-33.18922607,-37.36544646,-16.18306935,-1,-1,-1,-1
1.71E+12,128,128,-1,-1,-1,-1,-4.175703143,-33.18713449,-37.36283763,-16.18184037,-1,-1,-1,-1
1.71E+12,128,128,-1,-1,-1,-1,-4.175190858,-33.18500471,-37.36019557,-16.18062103,-1,-1,-1,-1
1.71E+12,128,128,-1,-1,-1,-1,-4.174685216,-33.18283668,-37.3575219,-16.17941188,-1,-1,-1,-1
1.71E+12,128,128,-1,-1,-1,-1,-4.174187768,-33.18063041,-37.35481817,-16.17821345,-1,-1,-1,-1
1.71E+12,128,128,-1,-1,-1,-1,-4.173699986,-33.17838581,-37.35208579,-16.17702626,-1,-1,-1,-1
1.71E+12,128,128,-1,-1,-1,-1,-4.173223274,-33.17610276,-37.34932603,-16.17585091,-1,-1,-1,-1
1.71E+12,128,128,-1,-1,-1,-1,-4.172758955,-33.17378116,-37.34654012,-16.17468799,-1,-1,-1,-1
1.71E+12,128,128,-1,-1,-1,-1,-4.172308305,-33.17142092,-37.34372923,-16.17353809,-1,-1,-1,-1
1.71E+12,128,128,-1,-1,-1,-1,-4.17187258,-33.16902196,-37.34089454,-16.17240174,-1,-1,-1,-1
1.71E+12,128,128,-1,-1,-1,-1,-4.171453007,-33.16658427,-37.33803728,-16.17127938,-1,-1,-1,-1
1.71E+12,128,128,-1,-1,-1,-1,-4.171050749,-33.16410794,-37.33515869,-16.1701715,-1,-1,-1,-1
1.71E+12,128,128,-1,-1,-1,-1,-4.170666932,-33.161593,-37.33225993,-16.16907859,-1,-1,-1,-1
1.71E+12,128,128,-1,-1,-1,-1,-4.170302666,-33.15903931,-37.32934197,-16.16800107,-1,-1,-1,-1
1.71E+12,128,128,-1,-1,-1,-1,-4.169959033,-33.15644653,-37.32640556,-16.16693933,-1,-1,-1,-1
1.71E+12,128,128,-1,-1,-1,-1,-4.169637082,-33.15381417,-37.32345125,-16.16589378,-1,-1,-1,-1
1.71E+12,128,128,-1,-1,-1,-1,-4.169337839,-33.15114173,-37.32047957,-16.16486479,-1,-1,-1,-1
1.71E+12,128,128,-1,-1,-1,-1,-4.169062295,-33.14842885,-37.31749115,-16.1638527,-1,-1,-1,-1
1.71E+12,128,128,-1,-1,-1,-1,-4.168811407,-33.14567539,-37.3144868,-16.16285777,-1,-1,-1,-1
1.71E+12,128,128,-1,-1,-1,-1,-4.168586087,-33.14288142,-37.31146751,-16.16188036,-1,-1,-1,-1
1.71E+12,128,128,-1,-1,-1,-1,-4.168387207,-33.14004706,-37.30843427,-16.16092087,-1,-1,-1,-1
1.71E+12,128,128,-1,-1,-1,-1,-4.168215594,-33.13717238,-37.30538797,-16.15997971,-1,-1,-1,-1
1.71E+12,128,128,-1,-1,-1,-1,-4.168072024,-33.13425733,-37.30232935,-16.15905729,-1,-1,-1,-1
1.71E+12,128,128,-1,-1,-1,-1,-4.167957228,-33.13130176,-37.29925899,-16.15815399,-1,-1,-1,-1
1.71E+12,128,128,-1,-1,-1,-1,-4.167871898,-33.12830554,-37.29617744,-16.15727017,-1,-1,-1,-1
1.71E+12,128,128,-1,-1,-1,-1,-4.167816669,-33.12526873,-37.2930854,-16.15640621,-1,-1,-1,-1
1.71E+12,128,128,-1,-1,-1,-1,-4.167792114,-33.12219166,-37.28998378,-16.15556257,-1,-1,-1,-1
1.71E+12,128,128,-1,-1,-1,-1,-4.167798748,-33.11907496,-37.28687371,-16.15473976,-1,-1,-1,-1
1.71E+12,128,128,-1,-1,-1,-1,-4.167837025,-33.11591935,-37.28375637,-16.15393825,-1,-1,-1,-1
1.71E+12,128,128,-1,-1,-1,-1,-4.167907342,-33.11272559,-37.28063293,-16.15315845,-1,-1,-1,-1
1.71E+12,128,128,-1,-1,-1,-1,-4.16801005,-33.10949442,-37.27750447,-16.15240079,-1,-1,-1,-1
1.71E+12,128,128,-1,-1,-1,-1,-4.168145428,-33.1062265,-37.27437192,-16.15166575,-1,-1,-1,-1
1.71E+12,128,128,-1,-1,-1,-1,-4.168313693,-33.10292243,-37.27123612,-16.15095383,-1,-1,-1,-1
1.71E+12,128,128,-1,-1,-1,-1,-4.168515008,-33.0995829,-37.26809791,-16.15026547,-1,-1,-1,-1
1.71E+12,128,128,-1,-1,-1,-1,-4.16874947,-33.09620881,-37.26495828,-16.14960108,-1,-1,-1,-1
1.71E+12,128,128,-1,-1,-1,-1,-4.169017105,-33.09280136,-37.26181847,-16.148961,-1,-1,-1,-1
1.71E+12,128,128,-1,-1,-1,-1,-4.169317879,-33.08936207,-37.25867995,-16.14834568,-1,-1,-1,-1
1.71E+12,128,128,-1,-1,-1,-1,-4.169651698,-33.08589258,-37.25554428,-16.1477556,-1,-1,-1,-1
1.71E+12,128,128,-1,-1,-1,-1,-4.170018397,-33.08239456,-37.25241296,-16.14719118,-1,-1,-1,-1
1.71E+12,128,128,-1,-1,-1,-1,-4.170417731,-33.07886961,-37.24928734,-16.14665282,-1,-1,-1,-1
1.71E+12,128,128,-1,-1,-1,-1,-4.170849378,-33.07531924,-37.24616862,-16.14614089,-1,-1,-1,-1
1.71E+12,128,128,-1,-1,-1,-1,-4.171312936,-33.07174499,-37.24305793,-16.14565576,-1,-1,-1,-1
1.71E+12,128,128,-1,-1,-1,-1,-4.171807914,-33.06814864,-37.23995655,-16.14519786,-1,-1,-1,-1
1.71E+12,128,128,-1,-1,-1,-1,-4.172333746,-33.06453224,-37.23686599,-16.14476753,-1,-1,-1,-1
1.71E+12,128,128,-1,-1,-1,-1,-4.172889808,-33.06089816,-37.23378797,-16.14436506,-1,-1,-1,-1
1.71E+12,128,128,-1,-1,-1,-1,-4.173475416,-33.05724893,-37.23072435,-16.1439908,-1,-1,-1,-1
1.71E+12,128,128,-1,-1,-1,-1,-4.174089822,-33.05358715,-37.22767697,-16.14364505,-1,-1,-1,-1
1.71E+12,128,128,-1,-1,-1,-1,-4.174732208,-33.04991533,-37.22464754,-16.14332806,-1,-1,-1,-1
1.71E+12,128,128,-1,-1,-1,-1,-4.175401693,-33.04623591,-37.2216376,-16.14304004,-1,-1,-1,-1
1.71E+12,128,128,-1,-1,-1,-1,-4.176097338,-33.04255128,-37.21864862,-16.14278119,-1,-1,-1,-1
1.71E+12,128,128,-1,-1,-1,-1,-4.176818136,-33.03886392,-37.21568206,-16.14255173,-1,-1,-1,-1
1.71E+12,128,128,-1,-1,-1,-1,-4.177563025,-33.03517651,-37.21273954,-16.14235185,-1,-1,-1,-1
1.71E+12,128,128,-1,-1,-1,-1,-4.178330884,-33.03149203,-37.20982292,-16.14218181,-1,-1,-1,-1
1.71E+12,128,128,-1,-1,-1,-1,-4.179120533,-33.02781374,-37.20693427,-16.14204176,-1,-1,-1,-1
1.71E+12,128,128,-1,-1,-1,-1,-4.179930734,-33.02414499,-37.20407572,-16.14193179,-1,-1,-1,-1
1.71E+12,128,128,-1,-1,-1,-1,-4.1807602,-33.02048912,-37.20124932,-16.14185197,-1,-1,-1,-1
1.71E+12,128,128,-1,-1,-1,-1,-4.181607583,-33.01684935,-37.19845693,-16.14180233,-1,-1,-1,-1
1.71E+12,128,128,-1,-1,-1,-1,-4.18247148,-33.01322874,-37.19570022,-16.14178292,-1,-1,-1,-1
1.71E+12,128,128,-1,-1,-1,-1,-4.183350446,-33.00963031,-37.19298076,-16.14179379,-1,-1,-1,-1
1.71E+12,128,128,-1,-1,-1,-1,-4.184242986,-33.00605716,-37.19030015,-16.14183494,-1,-1,-1,-1
1.71E+12,128,128,-1,-1,-1,-1,-4.185147562,-33.00251255,-37.18766012,-16.14190626,-1,-1,-1,-1
1.71E+12,128,128,-1,-1,-1,-1,-4.186062601,-32.99899997,-37.18506257,-16.14200764,-1,-1,-1,-1
1.71E+12,128,128,-1,-1,-1,-1,-4.186986494,-32.99552297,-37.18250946,-16.14213897,-1,-1,-1,-1
1.71E+12,128,128,-1,-1,-1,-1,-4.187917592,-32.992085,-37.18000259,-16.1423002,-1,-1,-1,-1
1.71E+12,128,128,-1,-1,-1,-1,-4.188854216,-32.98868933,-37.17754354,-16.14249124,-1,-1,-1,-1
1.71E+12,128,128,-1,-1,-1,-1,-4.189794665,-32.98533896,-37.17513363,-16.14271188,-1,-1,-1,-1
1.71E+12,128,128,-1,-1,-1,-1,-4.190737207,-32.98203685,-37.17277406,-16.1429626,-1,-1,-1,-1
1.71E+12,128,128,-1,-1,-1,-1,-4.191680073,-32.97878603,-37.1704661,-16.14324464,-1,-1,-1,-1
1.71E+12,128,128,-1,-1,-1,-1,-4.192621493,-32.9755895,-37.168211,-16.14355923,-1,-1,-1,-1
1.71E+12,128,128,-1,-1,-1,-1,-4.193559691,-32.97245026,-37.16600995,-16.14390767,-1,-1,-1,-1
1.71E+12,128,128,-1,-1,-1,-1,-4.194492876,-32.9693712,-37.16386408,-16.14429126,-1,-1,-1,-1
1.71E+12,128,128,-1,-1,-1,-1,-4.195419247,-32.96635509,-37.16177433,-16.1447113,-1,-1,-1,-1
1.71E+12,128,128,-1,-1,-1,-1,-4.196337013,-32.96340452,-37.15974153,-16.14516914,-1,-1,-1,-1
1.71E+12,128,128,-1,-1,-1,-1,-4.197244393,-32.96052199,-37.15776638,-16.14566613,-1,-1,-1,-1
1.71E+12,128,128,-1,-1,-1,-1,-4.198139608,-32.95770986,-37.15584947,-16.14620362,-1,-1,-1,-1
1.71E+12,128,128,-1,-1,-1,-1,-4.199020885,-32.95497046,-37.15399134,-16.14678301,-1,-1,-1,-1
1.71E+12,128,128,-1,-1,-1,-1,-4.199886466,-32.952306,-37.15219246,-16.14740577,-1,-1,-1,-1
1.71E+12,128,128,-1,-1,-1,-1,-4.200734544,-32.94971853,-37.15045308,-16.14807338,-1,-1,-1,-1
1.71E+12,128,128,-1,-1,-1,-1,-4.201563276,-32.94720983,-37.14877311,-16.14878741,-1,-1,-1,-1
1.71E+12,128,128,-1,-1,-1,-1,-4.202370859,-32.94478142,-37.14715228,-16.14954955,-1,-1,-1,-1
1.71E+12,128,128,-1,-1,-1,-1,-4.20315555,-32.94243468,-37.14559023,-16.15036157,-1,-1,-1,-1
1.71E+12,128,128,-1,-1,-1,-1,-4.203915663,-32.94017098,-37.14408665,-16.15122528,-1,-1,-1,-1
1.71E+12,128,128,-1,-1,-1,-1,-4.204649554,-32.93799175,-37.1426413,-16.15214264,-1,-1,-1,-1
1.71E+12,128,128,-1,-1,-1,-1,-4.205355645,-32.93589844,-37.14125409,-16.15311578,-1,-1,-1,-1
1.71E+12,128,128,-1,-1,-1,-1,-4.206032422,-32.93389243,-37.13992485,-16.15414699,-1,-1,-1,-1
1.71E+12,128,128,-1,-1,-1,-1,-4.206678412,-32.9319748,-37.13865321,-16.15523866,-1,-1,-1,-1
1.71E+12,128,128,-1,-1,-1,-1,-4.20729219,-32.93014626,-37.13743845,-16.15639326,-1,-1,-1,-1
1.71E+12,128,128,-1,-1,-1,-1,-4.207872401,-32.92840712,-37.13627952,-16.15761333,-1,-1,-1,-1
1.71E+12,128,128,-1,-1,-1,-1,-4.208417753,-32.92675741,-37.13517516,-16.15890153,-1,-1,-1,-1
1.71E+12,128,128,-1,-1,-1,-1,-4.208927006,-32.92519705,-37.13412406,-16.1602607,-1,-1,-1,-1
1.71E+12,128,128,-1,-1,-1,-1,-4.209398979,-32.92372596,-37.13312494,-16.16169375,-1,-1,-1,-1
1.71E+12,128,128,-1,-1,-1,-1,-4.209832576,-32.92234406,-37.13217664,-16.16320365,-1,-1,-1,-1
1.71E+12,128,128,-1,-1,-1,-1,-4.210226775,-32.9210512,-37.13127798,-16.16479351,-1,-1,-1,-1
1.71E+12,128,128,-1,-1,-1,-1,-4.210580618,-32.91984708,-37.1304277,-16.16646663,-1,-1,-1,-1
1.71E+12,128,128,-1,-1,-1,-1,-4.210893213,-32.91873109,-37.1296243,-16.16822645,-1,-1,-1,-1
1.71E+12,128,128,-1,-1,-1,-1,-4.211163751,-32.91770223,-37.12886599,-16.17007644,-1,-1,-1,-1
1.71E+12,128,128,-1,-1,-1,-1,-4.211391508,-32.91675917,-37.12815067,-16.17202012,-1,-1,-1,-1
1.71E+12,128,128,-1,-1,-1,-1,-4.211575825,-32.91590031,-37.12747613,-16.17406113,-1,-1,-1,-1
1.71E+12,128,128,-1,-1,-1,-1,-4.211716118,-32.91512402,-37.12684014,-16.17620333,-1,-1,-1,-1
1.71E+12,128,128,-1,-1,-1,-1,-4.211811875,-32.91442872,-37.1262406,-16.17845062,-1,-1,-1,-1
1.71E+12,128,128,-1,-1,-1,-1,-4.211862673,-32.91381287,-37.12567554,-16.18080694,-1,-1,-1,-1
1.71E+12,128,128,-1,-1,-1,-1,-4.21186818,-32.91327487,-37.12514305,-16.18327635,-1,-1,-1,-1
1.71E+12,128,128,-1,-1,-1,-1,-4.211828145,-32.9128129,-37.12464105,-16.18586303,-1,-1,-1,-1
1.71E+12,128,128,-1,-1,-1,-1,-4.211742405,-32.91242485,-37.12416726,-16.18857124,-1,-1,-1,-1
1.71E+12,128,128,-1,-1,-1,-1,-4.211610882,-32.91210823,-37.12371911,-16.19140523,-1,-1,-1,-1
1.71E+12,128,128,-1,-1,-1,-1,-4.211433584,-32.91186032,-37.1232939,-16.19436934,-1,-1,-1,-1
1.71E+12,128,128,-1,-1,-1,-1,-4.211210601,-32.91167837,-37.12288898,-16.19746799,-1,-1,-1,-1
1.71E+12,128,128,-1,-1,-1,-1,-4.210942105,-32.91155972,-37.12250183,-16.20070561,-1,-1,-1,-1
1.71E+12,128,128,-1,-1,-1,-1,-4.210628362,-32.91150182,-37.12213018,-16.2040866,-1,-1,-1,-1
1.71E+12,128,128,-1,-1,-1,-1,-4.210269727,-32.91150217,-37.1217719,-16.20761542,-1,-1,-1,-1
1.71E+12,128,128,-1,-1,-1,-1,-4.20986662,-32.9115582,-37.12142482,-16.21129653,-1,-1,-1,-1
1.71E+12,128,128,-1,-1,-1,-1,-4.209419546,-32.91166715,-37.12108669,-16.21513439,-1,-1,-1,-1
1.71E+12,128,128,-1,-1,-1,-1,-4.208929098,-32.91182602,-37.12075512,-16.21913338,-1,-1,-1,-1
1.71E+12,128,128,-1,-1,-1,-1,-4.208395942,-32.9120316,-37.12042755,-16.2232979,-1,-1,-1,-1
1.71E+12,128,128,-1,-1,-1,-1,-4.207820817,-32.91228054,-37.12010135,-16.22763229,-1,-1,-1,-1
1.71E+12,128,128,-1,-1,-1,-1,-4.207204543,-32.9125695,-37.11977405,-16.23214078,-1,-1,-1,-1
1.71E+12,128,128,-1,-1,-1,-1,-4.206548018,-32.91289538,-37.1194434,-16.23682751,-1,-1,-1,-1
1.71E+12,128,128,-1,-1,-1,-1,-4.20585221,-32.91325526,-37.11910747,-16.24169658,-1,-1,-1,-1
1.71E+12,128,128,-1,-1,-1,-1,-4.205118148,-32.91364629,-37.11876444,-16.24675195,-1,-1,-1,-1
1.71E+12,128,128,-1,-1,-1,-1,-4.204346917,-32.91406555,-37.11841247,-16.25199748,-1,-1,-1,-1
1.71E+12,128,128,-1,-1,-1,-1,-4.203539657,-32.91450997,-37.11804962,-16.25743689,-1,-1,-1,-1
1.71E+12,128,128,-1,-1,-1,-1,-4.202697571,-32.91497623,-37.1176738,-16.26307376,-1,-1,-1,-1
1.71E+12,128,128,-1,-1,-1,-1,-4.201821904,-32.91546091,-37.11728282,-16.26891156,-1,-1,-1,-1
1.71E+12,128,128,-1,-1,-1,-1,-4.200913947,-32.91596066,-37.11687461,-16.27495359,-1,-1,-1,-1
1.71E+12,128,128,-1,-1,-1,-1,-4.199975046,-32.91647233,-37.11644737,-16.28120292,-1,-1,-1,-1
1.71E+12,128,128,-1,-1,-1,-1,-4.199006591,-32.91699303,-37.11599962,-16.28766245,-1,-1,-1,-1
1.71E+12,128,128,-1,-1,-1,-1,-4.198010011,-32.91752011,-37.11553012,-16.2943348,-1,-1,-1,-1
1.71E+12,128,128,-1,-1,-1,-1,-4.196986634,-32.91805068,-37.11503731,-16.30122303,-1,-1,-1,-1
1.71E+12,128,128,-1,-1,-1,-1,-4.195937651,-32.91858153,-37.11451919,-16.30833043,-1,-1,-1,-1
1.71E+12,128,128,-1,-1,-1,-1,-4.194864187,-32.91910942,-37.11397361,-16.31566009,-1,-1,-1,-1
1.71E+12,128,128,-1,-1,-1,-1,-4.193767274,-32.91963098,-37.11339825,-16.32321498,-1,-1,-1,-1
1.71E+12,128,128,-1,-1,-1,-1,-4.192647918,-32.92014269,-37.1127906,-16.33099774,-1,-1,-1,-1
1.71E+12,128,128,-1,-1,-1,-1,-4.191507157,-32.92064077,-37.11214793,-16.3390107,-1,-1,-1,-1
1.71E+12,128,128,-1,-1,-1,-1,-4.190346103,-32.92112121,-37.11146731,-16.34725601,-1,-1,-1,-1
1.71E+12,128,128,-1,-1,-1,-1,-4.189165994,-32.92157999,-37.11074599,-16.35573558,-1,-1,-1,-1
1.71E+12,128,128,-1,-1,-1,-1,-4.187968191,-32.92201339,-37.10998159,-16.36445115,-1,-1,-1,-1
1.71E+12,128,128,-1,-1,-1,-1,-4.18675421,-32.92241831,-37.10917252,-16.37340429,-1,-1,-1,-1
1.71E+12,128,128,-1,-1,-1,-1,-4.185525916,-32.92279216,-37.10831808,-16.38259625,-1,-1,-1,-1
1.71E+12,128,128,-1,-1,-1,-1,-4.184285656,-32.92313244,-37.10741809,-16.39202808,-1,-1,-1,-1
1.71E+12,128,128,-1,-1,-1,-1,-4.183036052,-32.92343663,-37.10647269,-16.40170057,-1,-1,-1,-1
1.71E+12,128,128,-1,-1,-1,-1,-4.181779737,-32.92370238,-37.10548212,-16.41161424,-1,-1,-1,-1
1.71E+12,128,128,-1,-1,-1,-1,-4.18051923,-32.92392754,-37.10444677,-16.42176943,-1,-1,-1,-1
1.71E+12,128,128,-1,-1,-1,-1,-4.179256877,-32.92411035,-37.10336723,-16.4321663,-1,-1,-1,-1
1.71E+12,128,128,-1,-1,-1,-1,-4.177994875,-32.9242494,-37.10224427,-16.44280471,-1,-1,-1,-1
1.71E+12,128,128,-1,-1,-1,-1,-4.176735298,-32.92434354,-37.10107884,-16.45368433,-1,-1,-1,-1
1.71E+12,128,128,-1,-1,-1,-1,-4.17548012,-32.92439186,-37.09987198,-16.4648046,-1,-1,-1,-1
1.71E+12,128,128,-1,-1,-1,-1,-4.174231237,-32.92439358,-37.09862482,-16.47616468,-1,-1,-1,-1
1.71E+12,128,128,-1,-1,-1,-1,-4.172990474,-32.92434798,-37.09733845,-16.4877635,-1,-1,-1,-1
1.71E+12,128,128,-1,-1,-1,-1,-4.171759582,-32.92425432,-37.0960139,-16.49959968,-1,-1,-1,-1
1.71E+12,128,128,-1,-1,-1,-1,-4.170540261,-32.92411183,-37.09465209,-16.51167158,-1,-1,-1,-1
1.71E+12,128,128,-1,-1,-1,-1,-4.169334153,-32.92391972,-37.09325387,-16.52397727,-1,-1,-1,-1
1.71E+12,128,128,-1,-1,-1,-1,-4.168142857,-32.92367731,-37.09182017,-16.5365146,-1,-1,-1,-1
1.71E+12,128,128,-1,-1,-1,-1,-4.166967818,-32.92338396,-37.09035178,-16.54928126,-1,-1,-1,-1
1.71E+12,128,128,-1,-1,-1,-1,-4.165810309,-32.92303911,-37.08884942,-16.56227468,-1,-1,-1,-1
1.71E+12,128,128,-1,-1,-1,-1,-4.164671563,-32.92264245,-37.08731401,-16.57549208,-1,-1,-1,-1
1.71E+12,128,128,-1,-1,-1,-1,-4.16355278,-32.92219385,-37.08574663,-16.58893045,-1,-1,-1,-1
1.71E+12,128,128,-1,-1,-1,-1,-4.162455107,-32.92169327,-37.08414837,-16.60258657,-1,-1,-1,-1
1.71E+12,128,128,-1,-1,-1,-1,-4.161379639,-32.92114061,-37.08252025,-16.61645707,-1,-1,-1,-1
1.71E+12,128,128,-1,-1,-1,-1,-4.160327429,-32.92053567,-37.0808631,-16.63053843,-1,-1,-1,-1
1.71E+12,128,128,-1,-1,-1,-1,-4.159299498,-32.91987821,-37.07917771,-16.64482687,-1,-1,-1,-1
1.71E+12,128,128,-1,-1,-1,-1,-4.158296842,-32.91916804,-37.07746488,-16.65931843,-1,-1,-1,-1
1.71E+12,128,128,-1,-1,-1,-1,-4.15732042,-32.91840513,-37.07572555,-16.67400905,-1,-1,-1,-1
1.71E+12,128,128,-1,-1,-1,-1,-4.156371149,-32.91758974,-37.07396089,-16.6888945,-1,-1,-1,-1
1.71E+12,128,128,-1,-1,-1,-1,-4.155449897,-32.9167224,-37.07217229,-16.70397034,-1,-1,-1,-1
1.71E+12,128,128,-1,-1,-1,-1,-4.154557485,-32.91580377,-37.07036126,-16.71923204,-1,-1,-1,-1
1.71E+12,128,128,-1,-1,-1,-1,-4.153694682,-32.91483459,-37.06852927,-16.73467496,-1,-1,-1,-1
1.71E+12,128,128,-1,-1,-1,-1,-4.152862189,-32.91381545,-37.06667764,-16.75029439,-1,-1,-1,-1
1.71E+12,128,128,-1,-1,-1,-1,-4.152060654,-32.91274692,-37.06480757,-16.76608552,-1,-1,-1,-1
1.71E+12,128,128,-1,-1,-1,-1,-4.151290675,-32.91162965,-37.06292032,-16.78204345,-1,-1,-1,-1
1.71E+12,128,128,-1,-1,-1,-1,-4.150552792,-32.91046442,-37.06101721,-16.79816314,-1,-1,-1,-1
1.71E+12,128,128,-1,-1,-1,-1,-4.149847478,-32.90925207,-37.05909955,-16.81443949,-1,-1,-1,-1
1.71E+12,128,128,-1,-1,-1,-1,-4.149175146,-32.90799354,-37.05716868,-16.83086733,-1,-1,-1,-1
1.71E+12,128,128,-1,-1,-1,-1,-4.148536148,-32.9066898,-37.05522595,-16.84744141,-1,-1,-1,-1
1.71E+12,128,128,-1,-1,-1,-1,-4.147930777,-32.90534189,-37.05327266,-16.86415644,-1,-1,-1,-1
1.71E+12,128,128,-1,-1,-1,-1,-4.147359261,-32.90395082,-37.05131008,-16.88100704,-1,-1,-1,-1
1.71E+12,128,128,-1,-1,-1,-1,-4.146821756,-32.90251763,-37.04933939,-16.89798785,-1,-1,-1,-1
1.71E+12,128,128,-1,-1,-1,-1,-4.14631835,-32.90104341,-37.04736176,-16.91509341,-1,-1,-1,-1
1.71E+12,128,128,-1,-1,-1,-1,-4.145849065,-32.89952926,-37.04537832,-16.93231821,-1,-1,-1,-1
1.71E+12,128,128,-1,-1,-1,-1,-4.14541385,-32.89797633,-37.04339018,-16.94965674,-1,-1,-1,-1
1.71E+12,128,128,-1,-1,-1,-1,-4.145012595,-32.89638586,-37.04139845,-16.96710346,-1,-1,-1,-1
1.71E+12,128,128,-1,-1,-1,-1,-4.144645142,-32.89475909,-37.03940423,-16.98465274,-1,-1,-1,-1
1.71E+12,128,128,-1,-1,-1,-1,-4.1443113,-32.89309725,-37.03740855,-17.00229892,-1,-1,-1,-1
1.71E+12,128,128,-1,-1,-1,-1,-4.144010839,-32.8914015,-37.03541234,-17.02003634,-1,-1,-1,-1
1.71E+12,128,128,-1,-1,-1,-1,-4.143743469,-32.88967309,-37.03341656,-17.03785941,-1,-1,-1,-1
1.71E+12,128,128,-1,-1,-1,-1,-4.143508822,-32.88791338,-37.0314222,-17.05576254,-1,-1,-1,-1
1.71E+12,128,128,-1,-1,-1,-1,-4.143306499,-32.88612387,-37.02943037,-17.0737402,-1,-1,-1,-1
1.71E+12,128,128,-1,-1,-1,-1,-4.143136112,-32.88430616,-37.02744227,-17.09178683,-1,-1,-1,-1
1.71E+12,128,128,-1,-1,-1,-1,-4.142997318,-32.88246189,-37.02545921,-17.10989685,-1,-1,-1,-1
1.71E+12,128,128,-1,-1,-1,-1,-4.142889841,-32.88059288,-37.02348272,-17.12806462,-1,-1,-1,-1
1.71E+12,128,128,-1,-1,-1,-1,-4.142813444,-32.87870098,-37.02151443,-17.14628453,-1,-1,-1,-1
1.71E+12,128,128,-1,-1,-1,-1,-4.14276791,-32.87678805,-37.01955596,-17.16455097,-1,-1,-1,-1
1.71E+12,128,128,-1,-1,-1,-1,-4.142753027,-32.87485606,-37.01760908,-17.18285829,-1,-1,-1,-1
1.71E+12,128,128,-1,-1,-1,-1,-4.142768498,-32.87290723,-37.01567573,-17.20120086,-1,-1,-1,-1
1.71E+12,128,128,-1,-1,-1,-1,-4.142813899,-32.87094419,-37.01375809,-17.219573,-1,-1,-1,-1
1.71E+12,128,128,-1,-1,-1,-1,-4.142888652,-32.86896981,-37.01185846,-17.23796902,-1,-1,-1,-1
1.71E+12,128,128,-1,-1,-1,-1,-4.142992015,-32.86698706,-37.00997908,-17.25638318,-1,-1,-1,-1
1.71E+12,128,128,-1,-1,-1,-1,-4.143123056,-32.86499854,-37.0081216,-17.27480973,-1,-1,-1,-1
1.71E+12,128,128,-1,-1,-1,-1,-4.143280559,-32.86300641,-37.00628696,-17.29324296,-1,-1,-1,-1
1.71E+12,128,128,-1,-1,-1,-1,-4.143462849,-32.86101266,-37.0044755,-17.31167714,-1,-1,-1,-1
1.71E+12,128,128,-1,-1,-1,-1,-4.14366784,-32.85901925,-37.00268709,-17.33010648,-1,-1,-1,-1
1.71E+12,128,128,-1,-1,-1,-1,-4.143893345,-32.85702791,-37.00092126,-17.34852512,-1,-1,-1,-1
1.71E+12,128,128,-1,-1,-1,-1,-4.144137282,-32.85504015,-36.99917743,-17.36692723,-1,-1,-1,-1
1.71E+12,128,128,-1,-1,-1,-1,-4.144397733,-32.85305728,-36.99745501,-17.38530693,-1,-1,-1,-1
1.71E+12,128,128,-1,-1,-1,-1,-4.144672934,-32.85108045,-36.99575339,-17.40365837,-1,-1,-1,-1
1.71E+12,128,128,-1,-1,-1,-1,-4.144961215,-32.84911066,-36.99407187,-17.42197573,-1,-1,-1,-1
1.71E+12,128,128,-1,-1,-1,-1,-4.145260978,-32.84714877,-36.99240975,-17.44025334,-1,-1,-1,-1
1.71E+12,128,128,-1,-1,-1,-1,-4.145570682,-32.84519552,-36.9907662,-17.45848549,-1,-1,-1,-1
1.71E+12,128,128,-1,-1,-1,-1,-4.145888824,-32.84325147,-36.98914029,-17.47666646,-1,-1,-1,-1
1.71E+12,128,128,-1,-1,-1,-1,-4.146213904,-32.8413172,-36.98753111,-17.49479059,-1,-1,-1,-1
1.71E+12,128,128,-1,-1,-1,-1,-4.146544405,-32.8393934,-36.9859378,-17.51285228,-1,-1,-1,-1
1.71E+12,128,128,-1,-1,-1,-1,-4.146878807,-32.8374808,-36.98435961,-17.53084594,-1,-1,-1,-1
1.71E+12,128,128,-1,-1,-1,-1,-4.147215616,-32.83558017,-36.98279579,-17.54876613,-1,-1,-1,-1
1.71E+12,128,128,-1,-1,-1,-1,-4.147553345,-32.83369225,-36.9812456,-17.5666074,-1,-1,-1,-1
1.71E+12,128,128,-1,-1,-1,-1,-4.147890499,-32.83181776,-36.97970826,-17.58436444,-1,-1,-1,-1
1.71E+12,128,128,-1,-1,-1,-1,-4.148225586,-32.82995739,-36.97818297,-17.60203198,-1,-1,-1,-1
1.71E+12,128,128,-1,-1,-1,-1,-4.148557115,-32.82811179,-36.97666891,-17.61960477,-1,-1,-1,-1
1.71E+12,128,128,-1,-1,-1,-1,-4.148883586,-32.82628156,-36.97516515,-17.6370776,-1,-1,-1,-1
1.71E+12,128,128,-1,-1,-1,-1,-4.149203497,-32.82446719,-36.97367069,-17.65444531,-1,-1,-1,-1
1.71E+12,128,128,-1,-1,-1,-1,-4.149515354,-32.82266909,-36.97218445,-17.67170279,-1,-1,-1,-1
1.71E+12,128,128,-1,-1,-1,-1,-4.149817671,-32.82088762,-36.97070529,-17.68884495,-1,-1,-1,-1
1.71E+12,128,128,-1,-1,-1,-1,-4.150108975,-32.81912306,-36.96923204,-17.70586669,-1,-1,-1,-1
1.71E+12,128,128,-1,-1,-1,-1,-4.150387802,-32.81737567,-36.96776347,-17.72276298,-1,-1,-1,-1
1.71E+12,128,128,-1,-1,-1,-1,-4.150652704,-32.81564567,-36.96629838,-17.73952883,-1,-1,-1,-1
1.71E+12,128,128,-1,-1,-1,-1,-4.150902257,-32.81393323,-36.96483549,-17.75615935,-1,-1,-1,-1
1.71E+12,128,128,-1,-1,-1,-1,-4.151135049,-32.81223838,-36.96337342,-17.77264967,-1,-1,-1,-1
1.71E+12,128,128,-1,-1,-1,-1,-4.151349678,-32.81056099,-36.96191067,-17.788995,-1,-1,-1,-1
1.71E+12,128,128,-1,-1,-1,-1,-4.151544769,-32.80890084,-36.96044561,-17.80519055,-1,-1,-1,-1
1.71E+12,128,128,-1,-1,-1,-1,-4.151718978,-32.80725762,-36.9589766,-17.82123159,-1,-1,-1,-1
1.71E+12,128,128,-1,-1,-1,-1,-4.151870993,-32.80563096,-36.95750195,-17.83711356,-1,-1,-1,-1
1.71E+12,128,128,-1,-1,-1,-1,-4.151999527,-32.80402043,-36.95601996,-17.85283199,-1,-1,-1,-1
1.71E+12,128,128,-1,-1,-1,-1,-4.152103322,-32.80242555,-36.95452887,-17.86838252,-1,-1,-1,-1
1.71E+12,128,128,-1,-1,-1,-1,-4.152181167,-32.80084574,-36.95302691,-17.88376078,-1,-1,-1,-1
1.71E+12,128,128,-1,-1,-1,-1,-4.152231891,-32.79928036,-36.95151225,-17.89896252,-1,-1,-1,-1
1.71E+12,128,128,-1,-1,-1,-1,-4.152254359,-32.79772864,-36.949983,-17.91398361,-1,-1,-1,-1
1.71E+12,128,128,-1,-1,-1,-1,-4.152247482,-32.79618974,-36.94843723,-17.92882001,-1,-1,-1,-1
1.71E+12,128,128,-1,-1,-1,-1,-4.152210217,-32.79466274,-36.94687296,-17.94346788,-1,-1,-1,-1
1.71E+12,128,128,-1,-1,-1,-1,-4.15214157,-32.79314663,-36.9452882,-17.95792341,-1,-1,-1,-1
1.71E+12,128,128,-1,-1,-1,-1,-4.152040778,-32.79164034,-36.94368112,-17.97218234,-1,-1,-1,-1
1.71E+12,128,128,-1,-1,-1,-1,-4.151907314,-32.79014264,-36.94204995,-17.98623992,-1,-1,-1,-1
1.71E+12,128,128,-1,-1,-1,-1,-4.151740723,-32.78865221,-36.94039293,-18.00009144,-1,-1,-1,-1
1.71E+12,128,128,-1,-1,-1,-1,-4.151540615,-32.78716773,-36.93870834,-18.01373239,-1,-1,-1,-1
1.71E+12,128,128,-1,-1,-1,-1,-4.151306659,-32.78568791,-36.93699457,-18.02715835,-1,-1,-1,-1
1.71E+12,128,128,-1,-1,-1,-1,-4.1510386,-32.78421151,-36.93525011,-18.04036508,-1,-1,-1,-1
1.71E+12,128,128,-1,-1,-1,-1,-4.150736253,-32.78273723,-36.93347348,-18.05334844,-1,-1,-1,-1
1.71E+12,128,128,-1,-1,-1,-1,-4.150399501,-32.78126374,-36.93166324,-18.06610442,-1,-1,-1,-1
1.71E+12,128,128,-1,-1,-1,-1,-4.150028301,-32.77978959,-36.92981789,-18.07862917,-1,-1,-1,-1
1.71E+12,128,128,-1,-1,-1,-1,-4.149622681,-32.77831327,-36.92793595,-18.09091904,-1,-1,-1,-1
1.71E+12,128,128,-1,-1,-1,-1,-4.149182755,-32.77683318,-36.92601594,-18.10297051,-1,-1,-1,-1
1.71E+12,128,128,-1,-1,-1,-1,-4.148708715,-32.77534774,-36.92405645,-18.11478016,-1,-1,-1,-1
1.71E+12,128,128,-1,-1,-1,-1,-4.148200835,-32.77385537,-36.9220562,-18.12634469,-1,-1,-1,-1
1.71E+12,128,128,-1,-1,-1,-1,-4.14765948,-32.77235453,-36.92001401,-18.13766091,-1,-1,-1,-1
1.71E+12,128,128,-1,-1,-1,-1,-4.147085088,-32.77084374,-36.91792882,-18.14872582,-1,-1,-1,-1
1.71E+12,128,128,-1,-1,-1,-1,-4.146478178,-32.76932145,-36.91579963,-18.15953657,-1,-1,-1,-1
1.71E+12,128,128,-1,-1,-1,-1,-4.145839359,-32.76778612,-36.91362548,-18.17009039,-1,-1,-1,-1
1.71E+12,128,128,-1,-1,-1,-1,-4.145169324,-32.7662361,-36.91140543,-18.18038473,-1,-1,-1,-1
1.71E+12,128,128,-1,-1,-1,-1,-4.144468847,-32.76466975,-36.9091386,-18.19041721,-1,-1,-1,-1
1.71E+12,128,128,-1,-1,-1,-1,-4.143738788,-32.76308536,-36.90682415,-18.20018556,-1,-1,-1,-1
1.71E+12,128,128,-1,-1,-1,-1,-4.142980089,-32.76148128,-36.90446137,-18.20968764,-1,-1,-1,-1
1.71E+12,128,128,-1,-1,-1,-1,-4.142193764,-32.75985598,-36.90204975,-18.21892143,-1,-1,-1,-1
1.71E+12,128,128,-1,-1,-1,-1,-4.141380909,-32.758208,-36.89958891,-18.22788509,-1,-1,-1,-1
1.71E+12,128,128,-1,-1,-1,-1,-4.140542695,-32.75653595,-36.89707865,-18.236577,-1,-1,-1,-1
1.71E+12,128,128,-1,-1,-1,-1,-4.13968037,-32.75483844,-36.89451881,-18.24499567,-1,-1,-1,-1
1.71E+12,128,128,-1,-1,-1,-1,-4.138795246,-32.75311407,-36.89190932,-18.2531398,-1,-1,-1,-1
1.71E+12,128,128,-1,-1,-1,-1,-4.137888706,-32.75136148,-36.88925018,-18.26100825,-1,-1,-1,-1
1.71E+12,128,128,-1,-1,-1,-1,-4.136962202,-32.74957929,-36.88654149,-18.26860005,-1,-1,-1,-1
1.71E+12,128,128,-1,-1,-1,-1,-4.136017235,-32.74776622,-36.88378346,-18.27591449,-1,-1,-1,-1
1.71E+12,128,128,-1,-1,-1,-1,-4.135055366,-32.74592101,-36.88097638,-18.28295023,-1,-1,-1,-1
1.71E+12,128,128,-1,-1,-1,-1,-4.134078287,-32.74404231,-36.8781206,-18.28970497,-1,-1,-1,-1
1.71E+12,128,128,-1,-1,-1,-1,-4.133087802,-32.74212878,-36.87521658,-18.2961761,-1,-1,-1,-1
1.71E+12,128,128,-1,-1,-1,-1,-4.132085747,-32.74017908,-36.87226483,-18.30236115,-1,-1,-1,-1
1.71E+12,128,128,-1,-1,-1,-1,-4.131074013,-32.73819193,-36.86926594,-18.30825784,-1,-1,-1,-1
1.71E+12,128,128,-1,-1,-1,-1,-4.130054535,-32.73616619,-36.86622073,-18.31386403,-1,-1,-1,-1
1.71E+12,128,128,-1,-1,-1,-1,-4.129029284,-32.73410082,-36.86313011,-18.3191777,-1,-1,-1,-1
1.71E+12,128,128,-1,-1,-1,-1,-4.128000261,-32.73199485,-36.85999511,-18.32419694,-1,-1,-1,-1
1.71E+12,128,128,-1,-1,-1,-1,-4.126969486,-32.72984737,-36.85681685,-18.32892001,-1,-1,-1,-1
1.71E+12,128,128,-1,-1,-1,-1,-4.125939003,-32.72765753,-36.85359653,-18.33334525,-1,-1,-1,-1
1.71E+12,128,128,-1,-1,-1,-1,-4.124910874,-32.72542451,-36.85033538,-18.33747109,-1,-1,-1,-1
1.71E+12,128,128,-1,-1,-1,-1,-4.123887184,-32.72314753,-36.84703472,-18.34129604,-1,-1,-1,-1
1.71E+12,128,128,-1,-1,-1,-1,-4.122870025,-32.7208259,-36.84369592,-18.34481871,-1,-1,-1,-1
1.71E+12,128,128,-1,-1,-1,-1,-4.121861505,-32.71845896,-36.84032046,-18.34803783,-1,-1,-1,-1
1.71E+12,128,128,-1,-1,-1,-1,-4.120863735,-32.71604613,-36.83690987,-18.3509522,-1,-1,-1,-1
1.71E+12,128,128,-1,-1,-1,-1,-4.119878813,-32.71358693,-36.83346575,-18.3535608,-1,-1,-1,-1
1.71E+12,128,128,-1,-1,-1,-1,-4.11890884,-32.71108094,-36.82998978,-18.35586268,-1,-1,-1,-1
1.71E+12,128,128,-1,-1,-1,-1,-4.117955896,-32.70852783,-36.82648372,-18.35785692,-1,-1,-1,-1
1.71E+12,128,128,-1,-1,-1,-1,-4.117022031,-32.70592733,-36.82294936,-18.35954272,-1,-1,-1,-1
1.71E+12,128,128,-1,-1,-1,-1,-4.11610928,-32.70327926,-36.81938854,-18.36091932,-1,-1,-1,-1
1.71E+12,128,128,-1,-1,-1,-1,-4.115219647,-32.70058349,-36.81580314,-18.36198613,-1,-1,-1,-1
1.71E+12,128,128,-1,-1,-1,-1,-4.114355098,-32.69783996,-36.81219506,-18.36274266,-1,-1,-1,-1
1.71E+12,128,128,-1,-1,-1,-1,-4.113517562,-32.6950487,-36.80856626,-18.3631885,-1,-1,-1,-1
1.71E+12,128,128,-1,-1,-1,-1,-4.112708945,-32.69220979,-36.80491873,-18.36332324,-1,-1,-1,-1
1.71E+12,128,128,-1,-1,-1,-1,-4.111931111,-32.68932342,-36.80125453,-18.36314659,-1,-1,-1,-1
1.71E+12,128,128,-1,-1,-1,-1,-4.111185866,-32.68638987,-36.79757573,-18.3626584,-1,-1,-1,-1
1.71E+12,128,128,-1,-1,-1,-1,-4.110474954,-32.68340943,-36.79388438,-18.36185863,-1,-1,-1,-1
1.71E+12,128,128,-1,-1,-1,-1,-4.109800072,-32.6803824,-36.79018247,-18.36074725,-1,-1,-1,-1
1.71E+12,128,128,-1,-1,-1,-1,-4.109162839,-32.67730913,-36.78647197,-18.35932427,-1,-1,-1,-1
1.71E+12,128,128,-1,-1,-1,-1,-4.108564775,-32.67419004,-36.78275482,-18.35758982,-1,-1,-1,-1
1.71E+12,128,128,-1,-1,-1,-1,-4.108007299,-32.67102569,-36.77903299,-18.35554418,-1,-1,-1,-1
1.71E+12,128,128,-1,-1,-1,-1,-4.107491745,-32.66781662,-36.77530836,-18.35318775,-1,-1,-1,-1
1.71E+12,128,128,-1,-1,-1,-1,-4.107019382,-32.66456335,-36.77158273,-18.35052094,-1,-1,-1,-1
1.71E+12,128,128,-1,-1,-1,-1,-4.106591393,-32.66126635,-36.76785774,-18.34754437,-1,-1,-1,-1
1.71E+12,128,128,-1,-1,-1,-1,-4.106208827,-32.65792615,-36.76413497,-18.34425879,-1,-1,-1,-1
1.71E+12,128,128,-1,-1,-1,-1,-4.105872571,-32.65454333,-36.7604159,-18.34066514,-1,-1,-1,-1
1.71E+12,128,128,-1,-1,-1,-1,-4.105583312,-32.65111846,-36.75670177,-18.33676445,-1,-1,-1,-1
1.71E+12,128,128,-1,-1,-1,-1,-4.105341764,-32.64765211,-36.75299388,-18.33255766,-1,-1,-1,-1
1.71E+12,128,128,-1,-1,-1,-1,-4.105148745,-32.64414502,-36.74929376,-18.32804567,-1,-1,-1,-1
1.71E+12,128,128,-1,-1,-1,-1,-4.105004978,-32.64059802,-36.745603,-18.32322958,-1,-1,-1,-1
1.71E+12,128,128,-1,-1,-1,-1,-4.104911091,-32.63701194,-36.74192303,-18.31811064,-1,-1,-1,-1
1.71E+12,128,128,-1,-1,-1,-1,-4.104867618,-32.63338745,-36.73825507,-18.31269022,-1,-1,-1,-1
1.71E+12,128,128,-1,-1,-1,-1,-4.104874996,-32.62972509,-36.73460008,-18.30696997,-1,-1,-1,-1
1.71E+12,128,128,-1,-1,-1,-1,-4.104933567,-32.62602523,-36.7309588,-18.3009517,-1,-1,-1,-1
1.71E+12,128,128,-1,-1,-1,-1,-4.105043588,-32.62228824,-36.72733183,-18.29463736,-1,-1,-1,-1
1.71E+12,128,128,-1,-1,-1,-1,-4.105205217,-32.61851455,-36.72371977,-18.28802921,-1,-1,-1,-1
1.71E+12,128,128,-1,-1,-1,-1,-4.105418514,-32.61470476,-36.72012327,-18.28112967,-1,-1,-1,-1
1.71E+12,128,128,-1,-1,-1,-1,-4.105683443,-32.61085967,-36.71654311,-18.27394141,-1,-1,-1,-1
1.71E+12,128,128,-1,-1,-1,-1,-4.105999868,-32.6069802,-36.71298006,-18.26646727,-1,-1,-1,-1
1.71E+12,128,128,-1,-1,-1,-1,-4.10636756,-32.60306716,-36.70943472,-18.25871034,-1,-1,-1,-1
1.71E+12,128,128,-1,-1,-1,-1,-4.106786192,-32.59912123,-36.70590742,-18.25067403,-1,-1,-1,-1
1.71E+12,128,128,-1,-1,-1,-1,-4.107255359,-32.59514286,-36.70239822,-18.24236195,-1,-1,-1,-1
1.71E+12,128,128,-1,-1,-1,-1,-4.107774574,-32.5911324,-36.69890697,-18.23377795,-1,-1,-1,-1
1.71E+12,128,128,-1,-1,-1,-1,-4.108343268,-32.58709022,-36.69543349,-18.22492613,-1,-1,-1,-1
1.71E+12,128,128,-1,-1,-1,-1,-4.108960795,-32.58301684,-36.69197764,-18.2158109,-1,-1,-1,-1
1.71E+12,128,128,-1,-1,-1,-1,-4.109626432,-32.578913,-36.68853943,-18.20643686,-1,-1,-1,-1
1.71E+12,128,128,-1,-1,-1,-1,-4.110339391,-32.57477956,-36.68511895,-18.19680887,-1,-1,-1,-1
1.71E+12,128,128,-1,-1,-1,-1,-4.111098819,-32.57061739,-36.68171621,-18.1869321,-1,-1,-1,-1
1.71E+12,128,128,-1,-1,-1,-1,-4.111903794,-32.5664272,-36.678331,-18.17681199,-1,-1,-1,-1
1.71E+12,128,128,-1,-1,-1,-1,-4.112753332,-32.56220948,-36.67496281,-18.16645419,-1,-1,-1,-1
1.71E+12,128,128,-1,-1,-1,-1,-4.113646379,-32.55796453,-36.67161091,-18.15586458,-1,-1,-1,-1
1.71E+12,128,128,-1,-1,-1,-1,-4.114581921,-32.55369294,-36.66827486,-18.14504881,-1,-1,-1,-1
1.71E+12,128,128,-1,-1,-1,-1,-4.115559034,-32.54939561,-36.66495464,-18.13401228,-1,-1,-1,-1
1.71E+12,128,128,-1,-1,-1,-1,-4.11657683,-32.54507348,-36.66165031,-18.12276062,-1,-1,-1,-1
1.71E+12,128,128,-1,-1,-1,-1,-4.117634504,-32.5407275,-36.658362,-18.11129965,-1,-1,-1,-1
1.71E+12,128,128,-1,-1,-1,-1,-4.118731262,-32.53635877,-36.65509003,-18.09963544,-1,-1,-1,-1
1.71E+12,128,128,-1,-1,-1,-1,-4.119866206,-32.53196869,-36.65183489,-18.08777436,-1,-1,-1,-1
1.71E+12,128,128,-1,-1,-1,-1,-4.121038264,-32.52755889,-36.64859716,-18.07572304,-1,-1,-1,-1
1.71E+12,128,128,-1,-1,-1,-1,-4.122246093,-32.52313107,-36.64537716,-18.06348825,-1,-1,-1,-1
1.71E+12,128,128,-1,-1,-1,-1,-4.123488076,-32.51868658,-36.64217465,-18.05107694,-1,-1,-1,-1
1.71E+12,128,128,-1,-1,-1,-1,-4.124762317,-32.51422613,-36.63898844,-18.03849626,-1,-1,-1,-1
1.71E+12,128,128,-1,-1,-1,-1,-4.126066529,-32.5097498,-36.63581633,-18.02575361,-1,-1,-1,-1
1.71E+12,128,128,-1,-1,-1,-1,-4.127397987,-32.50525733,-36.63265531,-18.01285656,-1,-1,-1,-1
1.71E+12,128,128,-1,-1,-1,-1,-4.128753849,-32.50074821,-36.62950206,-17.99981349,-1,-1,-1,-1
1.71E+12,128,128,-1,-1,-1,-1,-4.130131388,-32.49622175,-36.62635314,-17.98663351,-1,-1,-1,-1
1.71E+12,128,128,-1,-1,-1,-1,-4.131527972,-32.49167711,-36.62320508,-17.97332588,-1,-1,-1,-1
1.71E+12,128,128,-1,-1,-1,-1,-4.132941131,-32.48711328,-36.62005441,-17.95990002,-1,-1,-1,-1
1.71E+12,128,128,-1,-1,-1,-1,-4.134368539,-32.48252911,-36.61689765,-17.94636542,-1,-1,-1,-1
1.71E+12,128,128,-1,-1,-1,-1,-4.135807976,-32.47792328,-36.61373125,-17.93273169,-1,-1,-1,-1
1.71E+12,128,128,-1,-1,-1,-1,-4.137257313,-32.47329424,-36.61055155,-17.91900861,-1,-1,-1,-1
1.71E+12,128,128,-1,-1,-1,-1,-4.138714492,-32.46864031,-36.6073548,-17.90520608,-1,-1,-1,-1
1.71E+12,128,128,-1,-1,-1,-1,-4.140177511,-32.46395973,-36.60413724,-17.89133413,-1,-1,-1,-1
1.71E+12,128,128,-1,-1,-1,-1,-4.141644433,-32.45925078,-36.60089521,-17.87740294,-1,-1,-1,-1
1.71E+12,128,128,-1,-1,-1,-1,-4.14311337,-32.45451181,-36.59762518,-17.86342286,-1,-1,-1,-1
1.71E+12,128,128,-1,-1,-1,-1,-4.144582475,-32.44974135,-36.59432383,-17.84940442,-1,-1,-1,-1
1.71E+12,128,128,-1,-1,-1,-1,-4.146049935,-32.44493803,-36.59098797,-17.83535827,-1,-1,-1,-1
1.71E+12,128,128,-1,-1,-1,-1,-4.147513963,-32.44010048,-36.58761444,-17.82129513,-1,-1,-1,-1
1.71E+12,128,128,-1,-1,-1,-1,-4.148972809,-32.43522723,-36.58420003,-17.80722584,-1,-1,-1,-1
1.71E+12,128,128,-1,-1,-1,-1,-4.150424746,-32.43031673,-36.58074147,-17.79316132,-1,-1,-1,-1
1.71E+12,128,128,-1,-1,-1,-1,-4.15186807,-32.42536736,-36.57723543,-17.77911259,-1,-1,-1,-1
1.71E+12,128,128,-1,-1,-1,-1,-4.153301123,-32.42037745,-36.57367858,-17.76509071,-1,-1,-1,-1
1.71E+12,128,128,-1,-1,-1,-1,-4.154722291,-32.41534532,-36.57006761,-17.7511068,-1,-1,-1,-1
1.71E+12,128,128,-1,-1,-1,-1,-4.156129989,-32.41026926,-36.56639925,-17.73717196,-1,-1,-1,-1
1.71E+12,128,128,-1,-1,-1,-1,-4.157522651,-32.40514759,-36.56267024,-17.72329732,-1,-1,-1,-1
1.71E+12,128,128,-1,-1,-1,-1,-4.158898731,-32.39997858,-36.55887731,-17.70949398,-1,-1,-1,-1
1.71E+12,128,128,-1,-1,-1,-1,-4.160256714,-32.39476039,-36.5550171,-17.69577297,-1,-1,-1,-1
1.71E+12,128,128,-1,-1,-1,-1,-4.161595118,-32.38949106,-36.55108618,-17.68214539,-1,-1,-1,-1
1.71E+12,128,128,-1,-1,-1,-1,-4.162912499,-32.38416851,-36.54708101,-17.66862232,-1,-1,-1,-1
1.71E+12,128,128,-1,-1,-1,-1,-4.164207455,-32.37879057,-36.54299803,-17.65521475,-1,-1,-1,-1
1.71E+12,128,128,-1,-1,-1,-1,-4.16547863,-32.37335498,-36.53883361,-17.64193364,-1,-1,-1,-1
1.71E+12,128,128,-1,-1,-1,-1,-4.166724717,-32.36785948,-36.53458419,-17.62878981,-1,-1,-1,-1
1.71E+12,128,128,-1,-1,-1,-1,-4.16794445,-32.36230175,-36.5302462,-17.615794,-1,-1,-1,-1
1.71E+12,128,128,-1,-1,-1,-1,-4.169136607,-32.35667936,-36.52581597,-17.60295682,-1,-1,-1,-1
1.71E+12,128,128,-1,-1,-1,-1,-4.170300021,-32.35098983,-36.52128985,-17.59028875,-1,-1,-1,-1
1.71E+12,128,128,-1,-1,-1,-1,-4.17143359,-32.34523069,-36.51666428,-17.57780015,-1,-1,-1,-1
1.71E+12,128,128,-1,-1,-1,-1,-4.172536278,-32.33939952,-36.5119358,-17.56550122,-1,-1,-1,-1
1.71E+12,128,128,-1,-1,-1,-1,-4.173607098,-32.33349404,-36.50710114,-17.55340199,-1,-1,-1,-1
1.71E+12,128,128,-1,-1,-1,-1,-4.174645115,-32.32751198,-36.50215709,-17.54151236,-1,-1,-1,-1
1.71E+12,128,128,-1,-1,-1,-1,-4.175649455,-32.32145103,-36.49710049,-17.5298421,-1,-1,-1,-1
1.71E+12,128,128,-1,-1,-1,-1,-4.176619301,-32.31530881,-36.49192811,-17.51840083,-1,-1,-1,-1
1.71E+12,128,128,-1,-1,-1,-1,-4.177553903,-32.30908282,-36.48663673,-17.507198,-1,-1,-1,-1
1.71E+12,128,128,-1,-1,-1,-1,-4.178452573,-32.30277062,-36.48122319,-17.4962428,-1,-1,-1,-1
1.71E+12,128,128,-1,-1,-1,-1,-4.179314683,-32.29636979,-36.47568448,-17.4855442,-1,-1,-1,-1
1.71E+12,128,128,-1,-1,-1,-1,-4.180139671,-32.28987806,-36.47001773,-17.47511091,-1,-1,-1,-1
1.71E+12,128,128,-1,-1,-1,-1,-4.180927035,-32.28329328,-36.46422031,-17.46495143,-1,-1,-1,-1
1.71E+12,128,128,-1,-1,-1,-1,-4.181676332,-32.27661349,-36.45828982,-17.45507406,-1,-1,-1,-1
1.71E+12,128,128,-1,-1,-1,-1,-4.182387194,-32.26983682,-36.45222401,-17.44548677,-1,-1,-1,-1
1.71E+12,128,128,-1,-1,-1,-1,-4.183059343,-32.2629614,-36.44602074,-17.43619729,-1,-1,-1,-1
1.71E+12,128,128,-1,-1,-1,-1,-4.18369257,-32.25598531,-36.43967788,-17.42721304,-1,-1,-1,-1
1.71E+12,128,128,-1,-1,-1,-1,-4.184286732,-32.24890665,-36.43319338,-17.41854121,-1,-1,-1,-1
1.71E+12,128,128,-1,-1,-1,-1,-4.184841746,-32.24172362,-36.42656537,-17.41018868,-1,-1,-1,-1
1.71E+12,128,128,-1,-1,-1,-1,-4.185357604,-32.23443459,-36.4197922,-17.40216203,-1,-1,-1,-1
1.71E+12,128,128,-1,-1,-1,-1,-4.185834373,-32.22703816,-36.41287253,-17.3944675,-1,-1,-1,-1
1.71E+12,128,128,-1,-1,-1,-1,-4.186272175,-32.21953317,-36.40580535,-17.38711105,-1,-1,-1,-1
1.71E+12,128,128,-1,-1,-1,-1,-4.186671193,-32.21191873,-36.39858992,-17.38009831,-1,-1,-1,-1
1.71E+12,128,128,-1,-1,-1,-1,-4.187031689,-32.20419402,-36.39122571,-17.37343458,-1,-1,-1,-1
1.71E+12,128,128,-1,-1,-1,-1,-4.187353984,-32.19635829,-36.38371227,-17.36712472,-1,-1,-1,-1
1.71E+12,128,128,-1,-1,-1,-1,-4.187638458,-32.18841087,-36.37604933,-17.36117324,-1,-1,-1,-1
1.71E+12,128,128,-1,-1,-1,-1,-4.187885547,-32.18035126,-36.36823681,-17.35558432,-1,-1,-1,-1
1.71E+12,128,128,-1,-1,-1,-1,-4.188095739,-32.17217916,-36.3602749,-17.3503618,-1,-1,-1,-1
1.71E+12,128,128,-1,-1,-1,-1,-4.18826958,-32.16389453,-36.35216411,-17.34550906,-1,-1,-1,-1
1.71E+12,128,128,-1,-1,-1,-1,-4.188407675,-32.15549764,-36.34390532,-17.34102907,-1,-1,-1,-1
1.71E+12,128,128,-1,-1,-1,-1,-4.188510676,-32.14698908,-36.33549975,-17.33692445,-1,-1,-1,-1
1.71E+12,128,128,-1,-1,-1,-1,-4.18857927,-32.13836972,-36.32694899,-17.33319753,-1,-1,-1,-1
1.71E+12,128,128,-1,-1,-1,-1,-4.188614185,-32.12964064,-36.31825482,-17.32985018,-1,-1,-1,-1
1.71E+12,128,128,-1,-1,-1,-1,-4.188616188,-32.12080301,-36.3094192,-17.32688392,-1,-1,-1,-1
1.71E+12,128,128,-1,-1,-1,-1,-4.188586091,-32.11185818,-36.30044427,-17.32429985,-1,-1,-1,-1
1.71E+12,128,128,-1,-1,-1,-1,-4.188524744,-32.10280771,-36.29133246,-17.32209863,-1,-1,-1,-1
1.71E+12,128,128,-1,-1,-1,-1,-4.188433036,-32.09365344,-36.28208647,-17.32028054,-1,-1,-1,-1
1.71E+12,128,128,-1,-1,-1,-1,-4.18831188,-32.08439751,-36.27270939,-17.31884546,-1,-1,-1,-1
1.71E+12,128,128,-1,-1,-1,-1,-4.188162225,-32.07504245,-36.26320467,-17.31779284,-1,-1,-1,-1
1.71E+12,128,128,-1,-1,-1,-1,-4.187985047,-32.06559108,-36.25357613,-17.3171217,-1,-1,-1,-1
1.71E+12,128,128,-1,-1,-1,-1,-4.187781357,-32.05604649,-36.24382785,-17.31683161,-1,-1,-1,-1
1.71E+12,128,128,-1,-1,-1,-1,-4.187552175,-32.04641193,-36.23396411,-17.31692267,-1,-1,-1,-1
1.71E+12,128,128,-1,-1,-1,-1,-4.18729851,-32.03669088,-36.22398939,-17.31739459,-1,-1,-1,-1
1.71E+12,128,128,-1,-1,-1,-1,-4.187021365,-32.02688699,-36.21390836,-17.31824662,-1,-1,-1,-1
1.71E+12,128,128,-1,-1,-1,-1,-4.186721745,-32.01700412,-36.20372586,-17.31947769,-1,-1,-1,-1
1.71E+12,128,128,-1,-1,-1,-1,-4.186400667,-32.00704625,-36.19344692,-17.32108627,-1,-1,-1,-1
1.71E+12,128,128,-1,-1,-1,-1,-4.186059154,-31.99701753,-36.18307669,-17.32307052,-1,-1,-1,-1
1.71E+12,128,128,-1,-1,-1,-1,-4.185698196,-31.98692229,-36.17262048,-17.32542825,-1,-1,-1,-1
1.71E+12,128,128,-1,-1,-1,-1,-4.185318709,-31.97676502,-36.16208373,-17.328157,-1,-1,-1,-1
1.71E+12,128,128,-1,-1,-1,-1,-4.18492151,-31.96655038,-36.15147189,-17.33125404,-1,-1,-1,-1
1.71E+12,128,128,-1,-1,-1,-1,-4.1845073,-31.95628311,-36.14079041,-17.33471632,-1,-1,-1,-1
1.71E+12,128,128,-1,-1,-1,-1,-4.184076659,-31.94596794,-36.1300446,-17.33854054,-1,-1,-1,-1
1.71E+12,128,128,-1,-1,-1,-1,-4.183630079,-31.93560964,-36.11923972,-17.34272321,-1,-1,-1,-1
1.71E+12,128,128,-1,-1,-1,-1,-4.183168047,-31.92521286,-36.10838091,-17.34726054,-1,-1,-1,-1
1.71E+12,128,128,-1,-1,-1,-1,-4.182691089,-31.91478207,-36.09747316,-17.3521486,-1,-1,-1,-1
1.71E+12,128,128,-1,-1,-1,-1,-4.18219982,-31.90432163,-36.08652145,-17.35738323,-1,-1,-1,-1
1.71E+12,128,128,-1,-1,-1,-1,-4.181694959,-31.8938359,-36.07553086,-17.36296006,-1,-1,-1,-1
1.71E+12,128,128,-1,-1,-1,-1,-4.181177333,-31.88332962,-36.06450696,-17.36887457,-1,-1,-1,-1
1.71E+12,128,128,-1,-1,-1,-1,-4.18064797,-31.87280809,-36.05345606,-17.37512209,-1,-1,-1,-1
1.71E+12,128,128,-1,-1,-1,-1,-4.180108319,-31.86227688,-36.0423852,-17.38169782,-1,-1,-1,-1
1.71E+12,128,128,-1,-1,-1,-1,-4.17956023,-31.85174159,-36.03130182,-17.38859676,-1,-1,-1,-1
1.71E+12,128,128,-1,-1,-1,-1,-4.179005671,-31.84120789,-36.02021356,-17.39581381,-1,-1,-1,-1
1.71E+12,128,128,-1,-1,-1,-1,-4.178446493,-31.83068173,-36.00912822,-17.40334383,-1,-1,-1,-1
1.71E+12,128,128,-1,-1,-1,-1,-4.177884414,-31.82016929,-35.99805371,-17.41118163,-1,-1,-1,-1
1.71E+12,128,128,-1,-1,-1,-1,-4.177321041,-31.80967698,-35.98699802,-17.41932194,-1,-1,-1,-1
1.71E+12,128,128,-1,-1,-1,-1,-4.176757856,-31.79921131,-35.97596916,-17.42775941,-1,-1,-1,-1
1.71E+12,128,128,-1,-1,-1,-1,-4.176196235,-31.78877892,-35.96497516,-17.43648861,-1,-1,-1,-1
1.71E+12,128,128,-1,-1,-1,-1,-4.175637464,-31.7783865,-35.95402396,-17.44550404,-1,-1,-1,-1
1.71E+12,128,128,-1,-1,-1,-1,-4.175082767,-31.76804065,-35.94312342,-17.45480008,-1,-1,-1,-1
1.71E+12,128,128,-1,-1,-1,-1,-4.174533129,-31.75774794,-35.93228107,-17.46437163,-1,-1,-1,-1
1.71E+12,128,128,-1,-1,-1,-1,-4.173989304,-31.74751481,-35.92150412,-17.47421417,-1,-1,-1,-1
1.71E+12,128,128,-1,-1,-1,-1,-4.17345199,-31.73734762,-35.91079961,-17.48432319,-1,-1,-1,-1
1.71E+12,128,128,-1,-1,-1,-1,-4.172921862,-31.72725249,-35.90017435,-17.4946941,-1,-1,-1,-1
1.71E+12,128,128,-1,-1,-1,-1,-4.172399587,-31.71723529,-35.88963487,-17.50532224,-1,-1,-1,-1
1.71E+12,128,128,-1,-1,-1,-1,-4.171885801,-31.70730163,-35.87918743,-17.51620287,-1,-1,-1,-1
1.71E+12,128,128,-1,-1,-1,-1,-4.171381114,-31.6974569,-35.86883801,-17.52733129,-1,-1,-1,-1
1.71E+12,128,128,-1,-1,-1,-1,-4.170886127,-31.68770628,-35.85859241,-17.53870285,-1,-1,-1,-1
1.71E+12,128,128,-1,-1,-1,-1,-4.17040142,-31.67805478,-35.8484562,-17.55031282,-1,-1,-1,-1
1.71E+12,128,128,-1,-1,-1,-1,-4.16992756,-31.66850726,-35.83843482,-17.56215648,-1,-1,-1,-1
1.71E+12,128,128,-1,-1,-1,-1,-4.169465101,-31.65906845,-35.82853355,-17.57422908,-1,-1,-1,-1
1.71E+12,128,128,-1,-1,-1,-1,-4.169014587,-31.64974294,-35.81875753,-17.58652604,-1,-1,-1,-1
1.71E+12,128,128,-1,-1,-1,-1,-4.168576556,-31.64053518,-35.80911174,-17.59904285,-1,-1,-1,-1
1.71E+12,128,128,-1,-1,-1,-1,-4.168151539,-31.63144934,-35.79960088,-17.61177502,-1,-1,-1,-1
1.71E+12,128,128,-1,-1,-1,-1,-4.167740066,-31.62248934,-35.79022941,-17.62471812,-1,-1,-1,-1
1.71E+12,128,128,-1,-1,-1,-1,-4.167342661,-31.61365882,-35.78100148,-17.63786779,-1,-1,-1,-1
1.71E+12,128,128,-1,-1,-1,-1,-4.166959839,-31.60496121,-35.77192104,-17.65121972,-1,-1,-1,-1
1.71E+12,128,128,-1,-1,-1,-1,-4.166592103,-31.59639978,-35.76299189,-17.66476963,-1,-1,-1,-1
1.71E+12,128,128,-1,-1,-1,-1,-4.166239943,-31.58797768,-35.75421762,-17.67851331,-1,-1,-1,-1
1.71E+12,128,128,-1,-1,-1,-1,-4.165903832,-31.57969789,-35.74560173,-17.69244659,-1,-1,-1,-1
1.71E+12,128,128,-1,-1,-1,-1,-4.165584225,-31.57156324,-35.73714746,-17.70656536,-1,-1,-1,-1
1.71E+12,128,128,-1,-1,-1,-1,-4.165281558,-31.56357621,-35.72885776,-17.72086562,-1,-1,-1,-1
1.71E+12,128,128,-1,-1,-1,-1,-4.164996254,-31.55573899,-35.72073525,-17.7353433,-1,-1,-1,-1
1.71E+12,128,128,-1,-1,-1,-1,-4.164728702,-31.5480535,-35.7127822,-17.74999437,-1,-1,-1,-1
1.71E+12,128,128,-1,-1,-1,-1,-4.164479261,-31.5405214,-35.70500067,-17.76481487,-1,-1,-1,-1
1.71E+12,128,128,-1,-1,-1,-1,-4.164248135,-31.53314387,-35.69739201,-17.77980113,-1,-1,-1,-1
1.71E+12,128,128,-1,-1,-1,-1,-4.164035356,-31.52592161,-35.68995697,-17.7949498,-1,-1,-1,-1
1.71E+12,128,128,-1,-1,-1,-1,-4.163840932,-31.51885525,-35.68269618,-17.81025751,-1,-1,-1,-1
1.71E+12,128,128,-1,-1,-1,-1,-4.163664848,-31.51194534,-35.67561019,-17.82572089,-1,-1,-1,-1
1.71E+12,128,128,-1,-1,-1,-1,-4.16350708,-31.50519225,-35.66869933,-17.84133653,-1,-1,-1,-1
1.71E+12,128,128,-1,-1,-1,-1,-4.163367508,-31.49859619,-35.6619637,-17.85710142,-1,-1,-1,-1
1.71E+12,128,128,-1,-1,-1,-1,-4.163245923,-31.49215725,-35.65540317,-17.87301297,-1,-1,-1,-1
1.71E+12,128,128,-1,-1,-1,-1,-4.16314209,-31.48587537,-35.64901746,-17.8890685,-1,-1,-1,-1
1.71E+12,128,128,-1,-1,-1,-1,-4.163055743,-31.47975034,-35.64280609,-17.90526526,-1,-1,-1,-1
1.71E+12,128,128,-1,-1,-1,-1,-4.162986585,-31.4737818,-35.63676839,-17.92160052,-1,-1,-1,-1
1.71E+12,128,128,-1,-1,-1,-1,-4.162934283,-31.46796914,-35.63090342,-17.93807154,-1,-1,-1,-1
1.71E+12,128,128,-1,-1,-1,-1,-4.162898473,-31.46231153,-35.62521,-17.95467542,-1,-1,-1,-1
1.71E+12,128,128,-1,-1,-1,-1,-4.162878762,-31.45680791,-35.61968668,-17.97140923,-1,-1,-1,-1
1.71E+12,128,128,-1,-1,-1,-1,-4.162874709,-31.45145706,-35.61433177,-17.98827003,-1,-1,-1,-1
1.71E+12,128,128,-1,-1,-1,-1,-4.162885841,-31.44625758,-35.60914342,-18.00525475,-1,-1,-1,-1
1.71E+12,128,128,-1,-1,-1,-1,-4.162911647,-31.44120794,-35.60411959,-18.02236029,-1,-1,-1,-1
1.71E+12,128,128,-1,-1,-1,-1,-4.162951581,-31.43630655,-35.59925813,-18.03958341,-1,-1,-1,-1
1.71E+12,128,128,-1,-1,-1,-1,-4.16300506,-31.43155173,-35.59455679,-18.0569207,-1,-1,-1,-1
1.71E+12,128,128,-1,-1,-1,-1,-4.163071463,-31.42694173,-35.5900132,-18.07436866,-1,-1,-1,-1
1.71E+12,128,128,-1,-1,-1,-1,-4.163150127,-31.4224746,-35.58562473,-18.09192372,-1,-1,-1,-1
1.71E+12,128,128,-1,-1,-1,-1,-4.163240342,-31.41814818,-35.58138852,-18.10958224,-1,-1,-1,-1
1.71E+12,128,128,-1,-1,-1,-1,-4.163341363,-31.41396015,-35.57730151,-18.12734037,-1,-1,-1,-1
1.71E+12,128,128,-1,-1,-1,-1,-4.163452411,-31.40990806,-35.57336047,-18.14519411,-1,-1,-1,-1
1.71E+12,128,128,-1,-1,-1,-1,-4.163572654,-31.40598938,-35.56956203,-18.16313945,-1,-1,-1,-1
1.71E+12,128,128,-1,-1,-1,-1,-4.163701217,-31.40220157,-35.56590279,-18.18117225,-1,-1,-1,-1
1.71E+12,128,128,-1,-1,-1,-1,-4.163837199,-31.39854205,-35.56237925,-18.19928812,-1,-1,-1,-1
1.71E+12,128,128,-1,-1,-1,-1,-4.163979667,-31.39500821,-35.55898788,-18.21748254,-1,-1,-1,-1
1.71E+12,128,128,-1,-1,-1,-1,-4.164127643,-31.39159733,-35.55572497,-18.23575092,-1,-1,-1,-1
1.71E+12,128,128,-1,-1,-1,-1,-4.164280113,-31.38830657,-35.55258668,-18.25408852,-1,-1,-1,-1
1.71E+12,128,128,-1,-1,-1,-1,-4.164436037,-31.385133,-35.54956903,-18.27249048,-1,-1,-1,-1
1.71E+12,128,128,-1,-1,-1,-1,-4.164594346,-31.3820736,-35.54666795,-18.29095169,-1,-1,-1,-1
1.71E+12,128,128,-1,-1,-1,-1,-4.164753938,-31.37912536,-35.5438793,-18.30946695,-1,-1,-1,-1
1.71E+12,128,128,-1,-1,-1,-1,-4.164913698,-31.37628524,-35.54119894,-18.32803091,-1,-1,-1,-1
1.71E+12,128,128,-1,-1,-1,-1,-4.165072521,-31.3735502,-35.53862272,-18.3466381,-1,-1,-1,-1
1.71E+12,128,128,-1,-1,-1,-1,-4.165229322,-31.3709172,-35.53614652,-18.3652829,-1,-1,-1,-1
1.71E+12,128,128,-1,-1,-1,-1,-4.165383025,-31.36838325,-35.53376627,-18.38395953,-1,-1,-1,-1
1.71E+12,128,128,-1,-1,-1,-1,-4.165532538,-31.36594544,-35.53147798,-18.40266207,-1,-1,-1,-1
1.71E+12,128,128,-1,-1,-1,-1,-4.165676772,-31.36360089,-35.52927766,-18.42138455,-1,-1,-1,-1
1.71E+12,128,128,-1,-1,-1,-1,-4.16581469,-31.36134666,-35.52716135,-18.44012074,-1,-1,-1,-1
1.71E+12,128,128,-1,-1,-1,-1,-4.16594533,-31.35917975,-35.52512508,-18.45886423,-1,-1,-1,-1
1.71E+12,128,128,-1,-1,-1,-1,-4.166067849,-31.35709723,-35.52316508,-18.47760858,-1,-1,-1,-1
1.71E+12,128,128,-1,-1,-1,-1,-4.166181295,-31.35509625,-35.52127754,-18.49634747,-1,-1,-1,-1
1.71E+12,128,128,-1,-1,-1,-1,-4.166284544,-31.35317392,-35.51945846,-18.51507464,-1,-1,-1,-1
1.71E+12,128,128,-1,-1,-1,-1,-4.166376495,-31.35132733,-35.51770382,-18.53378368,-1,-1,-1,-1
1.71E+12,128,128,-1,-1,-1,-1,-4.166456072,-31.34955364,-35.51600971,-18.55246809,-1,-1,-1,-1
1.71E+12,128,128,-1,-1,-1,-1,-4.166522222,-31.34785013,-35.51437235,-18.57112133,-1,-1,-1,-1
1.71E+12,128,128,-1,-1,-1,-1,-4.166573918,-31.34621425,-35.51278817,-18.58973674,-1,-1,-1,-1
1.71E+12,128,128,-1,-1,-1,-1,-4.166610166,-31.34464361,-35.51125377,-18.60830767,-1,-1,-1,-1
1.71E+12,128,128,-1,-1,-1,-1,-4.166630017,-31.34313584,-35.50976586,-18.62682738,-1,-1,-1,-1
1.71E+12,128,128,-1,-1,-1,-1,-4.166632566,-31.34168857,-35.50832113,-18.64528909,-1,-1,-1,-1
1.71E+12,128,128,-1,-1,-1,-1,-4.166616954,-31.34029933,-35.50691628,-18.66368595,-1,-1,-1,-1
1.71E+12,128,128,-1,-1,-1,-1,-4.166582379,-31.33896559,-35.50554797,-18.68201113,-1,-1,-1,-1
1.71E+12,128,128,-1,-1,-1,-1,-4.166528099,-31.33768483,-35.50421293,-18.7002578,-1,-1,-1,-1
1.71E+12,128,128,-1,-1,-1,-1,-4.166453425,-31.33645466,-35.50290809,-18.71841909,-1,-1,-1,-1
1.71E+12,128,128,-1,-1,-1,-1,-4.166357724,-31.3352728,-35.50163053,-18.73648809,-1,-1,-1,-1
1.71E+12,128,128,-1,-1,-1,-1,-4.166240416,-31.33413718,-35.50037759,-18.75445791,-1,-1,-1,-1
1.71E+12,128,128,-1,-1,-1,-1,-4.166100977,-31.33304581,-35.49914679,-18.77232179,-1,-1,-1,-1
1.71E+12,128,128,-1,-1,-1,-1,-4.165938952,-31.33199674,-35.49793569,-18.79007298,-1,-1,-1,-1
1.71E+12,128,128,-1,-1,-1,-1,-4.165753957,-31.33098796,-35.49674191,-18.80770476,-1,-1,-1,-1
