Shimmer_86BB_TimestampSync_Unix_CAL,Shimmer_86BB_GSR_Range_LPF_CAL,Shimmer_86BB_GSR_Skin_Conductance_LPF_CAL,Shimmer_86BB_GSR_Skin_Resistance_LPF_CAL,Shimmer_86BB_PPG_A13_LPF_CAL,Shimmer_86BB_PPG_IBI_LPF_CAL,Shimmer_86BB_PPGtoHR_LPF_CAL
1.71E+12,3,0.541014541,1848.379155,2932.600733,-1,-1
1.71E+12,3,0.541014541,1848.379155,2932.600733,-1,-1
1.71E+12,3,0.541014541,1848.379155,2932.600731,-1,-1
1.71E+12,3,0.541014541,1848.379155,2932.600727,-1,-1
1.71E+12,3,0.54101454,1848.379157,2932.600719,-1,-1
1.71E+12,3,0.541014539,1848.379161,2932.600707,-1,-1
1.71E+12,3,0.541014537,1848.379168,2932.600689,-1,-1
1.71E+12,3,0.541014534,1848.37918,2932.600664,-1,-1
1.71E+12,3,0.541014529,1848.379196,2932.60063,-1,-1
1.71E+12,3,0.541014522,1848.37922,2932.600586,-1,-1
1.71E+12,3,0.541014512,1848.379253,2932.60053,-1,-1
1.71E+12,3,0.541014499,1848.379297,2932.600459,-1,-1
1.71E+12,3,0.541014483,1848.379353,2932.60037,-1,-1
1.71E+12,3,0.541014462,1848.379424,2932.600262,-1,-1
1.71E+12,3,0.541014436,1848.379513,2932.600131,-1,-1
1.71E+12,3,0.541014404,1848.379624,2932.599974,-1,-1
1.71E+12,3,0.541014364,1848.37976,2932.59979,-1,-1
1.71E+12,3,0.541014315,1848.379927,2932.599574,-1,-1
1.71E+12,3,0.541014256,1848.38013,2932.599324,-1,-1
1.71E+12,3,0.541014184,1848.380375,2932.599035,-1,-1
1.71E+12,3,0.541014098,1848.380669,2932.598705,-1,-1
1.71E+12,3,0.541013996,1848.381019,2932.598329,-1,-1
1.71E+12,3,0.541013874,1848.381435,2932.597901,-1,-1
1.71E+12,3,0.541013731,1848.381924,2932.597418,-1,-1
1.71E+12,3,0.541013564,1848.382495,2932.596875,-1,-1
1.71E+12,3,0.54101337,1848.38316,2932.596267,-1,-1
1.71E+12,3,0.541013146,1848.383928,2932.595587,-1,-1
1.71E+12,3,0.541012887,1848.384811,2932.594832,-1,-1
1.71E+12,3,0.541012592,1848.385821,2932.593994,-1,-1
1.71E+12,3,0.541012256,1848.38697,2932.59307,-1,-1
1.71E+12,3,0.541011876,1848.388273,2932.592051,-1,-1
1.71E+12,3,0.541011446,1848.389744,2932.590932,-1,-1
1.71E+12,3,0.541010963,1848.391398,2932.589705,-1,-1
1.71E+12,3,0.541010421,1848.393253,2932.588363,-1,-1
1.71E+12,3,0.541009815,1848.395326,2932.586899,-1,-1
1.71E+12,3,0.54100914,1848.397635,2932.585305,-1,-1
1.71E+12,3,0.54100839,1848.400202,2932.583573,-1,-1
1.71E+12,3,0.541007558,1848.403049,2932.581695,-1,-1
1.71E+12,3,0.541006638,1848.406199,2932.579664,-1,-1
1.71E+12,3,0.541005623,1848.409676,2932.57747,-1,-1
1.71E+12,3,0.541004504,1848.413504,2932.575106,-1,-1
1.71E+12,3,0.541003275,1848.417711,2932.572563,-1,-1
1.71E+12,3,0.541001928,1848.422324,2932.569833,-1,-1
1.71E+12,3,0.541000453,1848.427372,2932.566908,-1,-1
1.71E+12,3,0.540998843,1848.432885,2932.563778,-1,-1
1.71E+12,3,0.540997088,1848.438894,2932.560435,-1,-1
1.71E+12,3,0.540995178,1848.445433,2932.556871,-1,-1
1.71E+12,3,0.540993104,1848.452535,2932.553075,-1,-1
1.71E+12,3,0.540990855,1848.460235,2932.549041,-1,-1
1.71E+12,3,0.540988421,1848.468569,2932.544758,-1,-1
1.71E+12,3,0.540985792,1848.477575,2932.540219,-1,-1
1.71E+12,3,0.540982954,1848.487292,2932.535416,-1,-1
1.71E+12,3,0.540979897,1848.497761,2932.53034,-1,-1
1.71E+12,3,0.540976609,1848.509022,2932.524983,-1,-1
1.71E+12,3,0.540973078,1848.521117,2932.519339,-1,-1
1.71E+12,3,0.54096929,1848.53409,2932.5134,-1,-1
1.71E+12,3,0.540965233,1848.547986,2932.507158,-1,-1
1.71E+12,3,0.540960894,1848.562848,2932.500608,-1,-1
1.71E+12,3,0.540956259,1848.578724,2932.493743,-1,-1
1.71E+12,3,0.540951316,1848.59566,2932.486559,-1,-1
1.71E+12,3,0.540946048,1848.613704,2932.479049,-1,-1
1.71E+12,3,0.540940444,1848.632905,2932.471208,-1,-1
1.71E+12,3,0.540934488,1848.65331,2932.463033,-1,-1
1.71E+12,3,0.540928166,1848.674971,2932.45452,-1,-1
1.71E+12,3,0.540921463,1848.697936,2932.445664,-1,-1
1.71E+12,3,0.540914366,1848.722255,2932.436464,-1,-1
1.71E+12,3,0.540906859,1848.747978,2932.426918,-1,-1
1.71E+12,3,0.540898928,1848.775156,2932.417024,-1,-1
1.71E+12,3,0.540890558,1848.80384,2932.406782,-1,-1
1.71E+12,3,0.540881735,1848.83408,2932.396191,-1,-1
1.71E+12,3,0.540872443,1848.865927,2932.385253,-1,-1
1.71E+12,3,0.540862668,1848.89943,2932.37397,-1,-1
1.71E+12,3,0.540852395,1848.934642,2932.362342,-1,-1
1.71E+12,3,0.54084161,1848.97161,2932.350372,-1,-1
1.71E+12,3,0.540830299,1849.010385,2932.338066,-1,-1
1.71E+12,3,0.540818447,1849.051015,2932.325426,-1,-1
1.71E+12,3,0.540806041,1849.093549,2932.312459,-1,-1
1.71E+12,3,0.540793066,1849.138034,2932.299169,-1,-1
1.71E+12,3,0.540779509,1849.184516,2932.285564,-1,-1
1.71E+12,3,0.540765358,1849.233041,2932.271652,-1,-1
1.71E+12,3,0.540750598,1849.283652,2932.257439,-1,-1
1.71E+12,3,0.540735219,1849.336393,2932.242935,-1,-1
1.71E+12,3,0.540719207,1849.391305,2932.228149,-1,-1
1.71E+12,3,0.540702552,1849.448429,2932.213091,-1,-1
1.71E+12,3,0.540685242,1849.507802,2932.197772,-1,-1
1.71E+12,3,0.540667266,1849.569463,2932.182203,-1,-1
1.71E+12,3,0.540648614,1849.633447,2932.166395,-1,-1
1.71E+12,3,0.540629276,1849.699789,2932.150362,-1,-1
1.71E+12,3,0.540609243,1849.76852,2932.134117,-1,-1
1.71E+12,3,0.540588506,1849.83967,2932.117673,-1,-1
1.71E+12,3,0.540567058,1849.913268,2932.101046,-1,-1
1.71E+12,3,0.54054489,1849.989338,2932.084249,-1,-1
1.71E+12,3,0.540521997,1850.067905,2932.067298,-1,-1
1.71E+12,3,0.540498371,1850.148991,2932.050209,-1,-1
1.71E+12,3,0.540474008,1850.232614,2932.032997,-1,-1
1.71E+12,3,0.540448902,1850.318793,2932.015679,-1,-1
1.71E+12,3,0.54042305,1850.407542,2931.998271,-1,-1
1.71E+12,3,0.540396447,1850.498874,2931.98079,-1,-1
1.71E+12,3,0.54036909,1850.5928,2931.963252,-1,-1
1.71E+12,3,0.540340979,1850.689329,2931.945673,-1,-1
1.71E+12,3,0.54031211,1850.788464,2931.928071,-1,-1
1.71E+12,3,0.540282484,1850.890209,2931.910464,-1,-1
1.71E+12,3,0.540252101,1850.994563,2931.892867,-1,-1
1.71E+12,3,0.540220962,1851.101524,2931.875299,-1,-1
1.71E+12,3,0.540189067,1851.211088,2931.857776,-1,-1
1.71E+12,3,0.54015642,1851.323249,2931.840316,-1,-1
1.71E+12,3,0.540123023,1851.437998,2931.822935,-1,-1
1.71E+12,3,0.540088879,1851.555323,2931.80565,-1,-1
1.71E+12,3,0.540053992,1851.675211,2931.788476,-1,-1
1.71E+12,3,0.540018368,1851.797646,2931.771429,-1,-1
1.71E+12,3,0.539982012,1851.92261,2931.754525,-1,-1
1.71E+12,3,0.53994493,1852.050081,2931.737777,-1,-1
1.71E+12,3,0.539907129,1852.180037,2931.721201,-1,-1
1.71E+12,3,0.539868617,1852.312453,2931.70481,-1,-1
1.71E+12,3,0.539829401,1852.447303,2931.688618,-1,-1
1.71E+12,3,0.53978949,1852.584557,2931.672638,-1,-1
1.71E+12,3,0.539748893,1852.724186,2931.656882,-1,-1
1.71E+12,3,0.539707619,1852.866157,2931.641362,-1,-1
1.71E+12,3,0.539665679,1853.010437,2931.626089,-1,-1
1.71E+12,3,0.539623084,1853.156989,2931.611075,-1,-1
1.71E+12,3,0.539579844,1853.305778,2931.596328,-1,-1
1.71E+12,3,0.53953597,1853.456762,2931.581859,-1,-1
1.71E+12,3,0.539491475,1853.609904,2931.567676,-1,-1
1.71E+12,3,0.539446372,1853.76516,2931.553788,-1,-1
1.71E+12,3,0.539400672,1853.922488,2931.540201,-1,-1
1.71E+12,3,0.539354389,1854.081844,2931.526923,-1,-1
1.71E+12,3,0.539307536,1854.243181,2931.51396,-1,-1
1.71E+12,3,0.539260128,1854.406453,2931.501317,-1,-1
1.71E+12,3,0.539212178,1854.571612,2931.488998,-1,-1
1.71E+12,3,0.539163702,1854.738608,2931.477007,-1,-1
1.71E+12,3,0.539114712,1854.907392,2931.465348,-1,-1
1.71E+12,3,0.539065225,1855.077915,2931.454022,-1,-1
1.71E+12,3,0.539015256,1855.250125,2931.443032,-1,-1
1.71E+12,3,0.538964818,1855.423971,2931.432379,-1,-1
1.71E+12,3,0.538913929,1855.5994,2931.422063,-1,-1
1.71E+12,3,0.538862603,1855.77636,2931.412082,-1,-1
1.71E+12,3,0.538810856,1855.954797,2931.402437,-1,-1
1.71E+12,3,0.538758703,1856.13466,2931.393125,-1,-1
1.71E+12,3,0.53870616,1856.315894,2931.384145,-1,-1
1.71E+12,3,0.538653243,1856.498445,2931.375494,-1,-1
1.71E+12,3,0.538599969,1856.682259,2931.367168,-1,-1
1.71E+12,3,0.538546352,1856.867282,2931.359165,-1,-1
1.71E+12,3,0.538492409,1857.053459,2931.35148,-1,-1
1.71E+12,3,0.538438155,1857.240737,2931.344109,-1,-1
1.71E+12,3,0.538383607,1857.429061,2931.337048,-1,-1
1.71E+12,3,0.538328781,1857.618377,2931.330291,-1,-1
1.71E+12,3,0.538273691,1857.808632,2931.323833,-1,-1
1.71E+12,3,0.538218354,1857.999772,2931.317668,-1,-1
1.71E+12,3,0.538162784,1858.191745,2931.31179,-1,-1
1.71E+12,3,0.538106998,1858.3845,2931.306192,-1,-1
1.71E+12,3,0.538051009,1858.577984,2931.300868,-1,-1
1.71E+12,3,0.537994834,1858.772146,2931.295811,-1,-1
1.71E+12,3,0.537938487,1858.966935,2931.291014,-1,-1
1.71E+12,3,0.537881982,1859.162301,2931.28647,-1,-1
1.71E+12,3,0.537825334,1859.358195,2931.282172,-1,-1
1.71E+12,3,0.537768558,1859.554566,2931.278111,-1,-1
1.71E+12,3,0.537711668,1859.751367,2931.274282,-1,-1
1.71E+12,3,0.537654677,1859.948549,2931.270675,-1,-1
1.71E+12,3,0.537597599,1860.146065,2931.267283,-1,-1
1.71E+12,3,0.537540448,1860.343868,2931.2641,-1,-1
1.71E+12,3,0.537483238,1860.541912,2931.261118,-1,-1
1.71E+12,3,0.537425981,1860.740152,2931.258329,-1,-1
1.71E+12,3,0.537368691,1860.938542,2931.255728,-1,-1
1.71E+12,3,0.537311381,1861.137036,2931.253307,-1,-1
1.71E+12,3,0.537254063,1861.335592,2931.251059,-1,-1
1.71E+12,3,0.53719675,1861.534167,2931.248978,-1,-1
1.71E+12,3,0.537139454,1861.732718,2931.247057,-1,-1
1.71E+12,3,0.537082187,1861.931203,2931.245289,-1,-1
1.71E+12,3,0.53702496,1862.129583,2931.243667,-1,-1
1.71E+12,3,0.536967786,1862.327818,2931.242185,-1,-1
1.71E+12,3,0.536910676,1862.525868,2931.240838,-1,-1
1.71E+12,3,0.53685364,1862.723694,2931.239619,-1,-1
1.71E+12,3,0.53679669,1862.921259,2931.238522,-1,-1
1.71E+12,3,0.536739836,1863.118525,2931.237543,-1,-1
1.71E+12,3,0.536683088,1863.315457,2931.236675,-1,-1
1.71E+12,3,0.536626458,1863.512019,2931.235914,-1,-1
1.71E+12,3,0.536569955,1863.708175,2931.235255,-1,-1
1.71E+12,3,0.536513587,1863.903895,2931.234693,-1,-1
1.71E+12,3,0.536457365,1864.099145,2931.234224,-1,-1
1.71E+12,3,0.536401298,1864.293894,2931.233845,-1,-1
1.71E+12,3,0.536345394,1864.488111,2931.23355,-1,-1
1.71E+12,3,0.536289661,1864.681766,2931.233337,-1,-1
1.71E+12,3,0.536234109,1864.874832,2931.233201,-1,-1
1.71E+12,3,0.536178745,1865.067277,2931.233139,-1,-1
1.71E+12,3,0.536123577,1865.259076,2931.233147,-1,-1
1.71E+12,3,0.536068613,1865.450202,2931.233221,-1,-1
1.71E+12,3,0.536013859,1865.64063,2931.233359,-1,-1
1.71E+12,3,0.535959323,1865.830334,2931.233557,-1,-1
1.71E+12,3,0.535905012,1866.019292,2931.233811,-1,-1
1.71E+12,3,0.535850931,1866.207481,2931.23412,-1,-1
1.71E+12,3,0.535797088,1866.394879,2931.234481,-1,-1
1.71E+12,3,0.535743487,1866.581467,2931.234891,-1,-1
1.71E+12,3,0.535690134,1866.767226,2931.235348,-1,-1
1.71E+12,3,0.535637034,1866.952138,2931.23585,-1,-1
1.71E+12,3,0.535584191,1867.136186,2931.236396,-1,-1
1.71E+12,3,0.535531611,1867.319353,2931.236983,-1,-1
1.71E+12,3,0.535479298,1867.501625,2931.237608,-1,-1
1.71E+12,3,0.535427254,1867.682988,2931.23827,-1,-1
1.71E+12,3,0.535375484,1867.86343,2931.238969,-1,-1
1.71E+12,3,0.535323991,1868.04294,2931.239701,-1,-1
1.71E+12,3,0.535272778,1868.221508,2931.240467,-1,-1
1.71E+12,3,0.535221846,1868.399127,2931.241262,-1,-1
1.71E+12,3,0.535171198,1868.575788,2931.242089,-1,-1
1.71E+12,3,0.535120835,1868.751485,2931.242944,-1,-1
1.71E+12,3,0.535070759,1868.926212,2931.243827,-1,-1
1.71E+12,3,0.535020972,1869.099965,2931.244736,-1,-1
1.71E+12,3,0.534971473,1869.272742,2931.24567,-1,-1
1.71E+12,3,0.534922263,1869.444541,2931.246626,-1,-1
1.71E+12,3,0.534873343,1869.615361,2931.247604,-1,-1
1.71E+12,3,0.534824711,1869.785203,2931.248602,-1,-1
1.71E+12,3,0.534776368,1869.954069,2931.249619,-1,-1
1.71E+12,3,0.534728312,1870.121963,2931.250654,-1,-1
1.71E+12,3,0.534680542,1870.288887,2931.251706,-1,-1
1.71E+12,3,0.534633056,1870.454848,2931.252771,-1,-1
1.71E+12,3,0.534585853,1870.619852,2931.25385,-1,-1
1.71E+12,3,0.534538929,1870.783907,2931.254939,-1,-1
1.71E+12,3,0.534492284,1870.94702,2931.256036,-1,-1
1.71E+12,3,0.534445913,1871.109201,2931.257139,-1,-1
1.71E+12,3,0.534399815,1871.27046,2931.258246,-1,-1
1.71E+12,3,0.534353986,1871.430807,2931.259355,-1,-1
1.71E+12,3,0.534308422,1871.590255,2931.260462,-1,-1
1.71E+12,3,0.534263119,1871.748816,2931.261566,-1,-1
1.71E+12,3,0.534218074,1871.906506,2931.262665,-1,-1
1.71E+12,3,0.534173282,1872.063339,2931.263756,-1,-1
1.71E+12,3,0.534128738,1872.219331,2931.264838,-1,-1
1.71E+12,3,0.534084438,1872.3745,2931.265908,-1,-1
1.71E+12,3,0.534040375,1872.528864,2931.266966,-1,-1
1.71E+12,3,0.533996544,1872.682442,2931.268007,-1,-1
1.71E+12,3,0.533952941,1872.835255,2931.269029,-1,-1
1.71E+12,3,0.533909557,1872.987323,2931.27003,-1,-1
1.71E+12,3,0.533866388,1873.138666,2931.271009,-1,-1
1.71E+12,3,0.533823428,1873.289306,2931.271963,-1,-1
1.71E+12,3,0.53378067,1873.439264,2931.272891,-1,-1
1.71E+12,3,0.533738107,1873.588562,2931.273792,-1,-1
1.71E+12,3,0.533695735,1873.737223,2931.274663,-1,-1
1.71E+12,3,0.533653545,1873.885268,2931.275502,-1,-1
1.71E+12,3,0.533611533,1874.032718,2931.276309,-1,-1
1.71E+12,3,0.533569691,1874.179594,2931.277081,-1,-1
1.71E+12,3,0.533528014,1874.325919,2931.277815,-1,-1
1.71E+12,3,0.533486496,1874.471714,2931.27851,-1,-1
1.71E+12,3,0.533445129,1874.617002,2931.279165,-1,-1
1.71E+12,3,0.533403908,1874.761806,2931.279777,-1,-1
1.71E+12,3,0.533362826,1874.906146,2931.280344,-1,-1
1.71E+12,3,0.533321877,1875.050045,2931.280867,-1,-1
1.71E+12,3,0.533281055,1875.193522,2931.281343,-1,-1
1.71E+12,3,0.533240354,1875.336598,2931.281772,-1,-1
1.71E+12,3,0.533199768,1875.479295,2931.282153,-1,-1
1.71E+12,3,0.533159291,1875.621632,2931.282484,-1,-1
1.71E+12,3,0.533118919,1875.763629,2931.282766,-1,-1
1.71E+12,3,0.533078644,1875.905304,2931.282998,-1,-1
1.71E+12,3,0.533038463,1876.046676,2931.283179,-1,-1
1.71E+12,3,0.53299837,1876.18776,2931.283309,-1,-1
1.71E+12,3,0.532958361,1876.328574,2931.283388,-1,-1
1.71E+12,3,0.532918431,1876.469133,2931.283415,-1,-1
1.71E+12,3,0.532878575,1876.609453,2931.283392,-1,-1
1.71E+12,3,0.53283879,1876.749547,2931.283317,-1,-1
1.71E+12,3,0.532799072,1876.889429,2931.28319,-1,-1
1.71E+12,3,0.532759417,1877.02911,2931.283013,-1,-1
1.71E+12,3,0.532719822,1877.168604,2931.282785,-1,-1
1.71E+12,3,0.532680284,1877.307919,2931.282507,-1,-1
1.71E+12,3,0.5326408,1877.447065,2931.282181,-1,-1
1.71E+12,3,0.532601368,1877.58605,2931.281808,-1,-1
1.71E+12,3,0.532561986,1877.724881,2931.28139,-1,-1
1.71E+12,3,0.532522651,1877.863565,2931.280929,-1,-1
1.71E+12,3,0.532483364,1878.002105,2931.280428,-1,-1
1.71E+12,3,0.532444121,1878.140507,2931.279888,-1,-1
1.71E+12,3,0.532404923,1878.278773,2931.279312,-1,-1
1.71E+12,3,0.532365768,1878.416905,2931.278702,-1,-1
1.71E+12,3,0.532326658,1878.554901,2931.27806,-1,-1
1.71E+12,3,0.532287592,1878.692763,2931.277389,-1,-1
1.71E+12,3,0.53224857,1878.830488,2931.276691,-1,-1
1.71E+12,3,0.532209593,1878.968072,2931.27597,-1,-1
1.71E+12,3,0.532170663,1879.105514,2931.27523,-1,-1
1.71E+12,3,0.532131779,1879.242808,2931.274473,-1,-1
1.71E+12,3,0.532092945,1879.379948,2931.2737,-1,-1
1.71E+12,3,0.532054161,1879.51693,2931.272916,-1,-1
1.71E+12,3,0.532015429,1879.653746,2931.272122,-1,-1
1.71E+12,3,0.531976751,1879.790389,2931.271322,-1,-1
1.71E+12,3,0.53193813,1879.926851,2931.270518,-1,-1
1.71E+12,3,0.531899568,1880.063122,2931.269713,-1,-1
1.71E+12,3,0.531861068,1880.199192,2931.26891,-1,-1
1.71E+12,3,0.531822633,1880.335052,2931.268111,-1,-1
1.71E+12,3,0.531784264,1880.470693,2931.267321,-1,-1
1.71E+12,3,0.531745966,1880.606104,2931.26654,-1,-1
1.71E+12,3,0.531707741,1880.741275,2931.265772,-1,-1
1.71E+12,3,0.531669592,1880.876192,2931.26502,-1,-1
1.71E+12,3,0.531631523,1881.010846,2931.264286,-1,-1
1.71E+12,3,0.531593536,1881.145225,2931.263572,-1,-1
1.71E+12,3,0.531555635,1881.279317,2931.262881,-1,-1
1.71E+12,3,0.531517824,1881.413112,2931.262214,-1,-1
1.71E+12,3,0.531480103,1881.5466,2931.261573,-1,-1
1.71E+12,3,0.531442478,1881.679769,2931.260959,-1,-1
1.71E+12,3,0.531404952,1881.812606,2931.260372,-1,-1
1.71E+12,3,0.531367527,1881.945101,2931.259814,-1,-1
1.71E+12,3,0.531330206,1882.077243,2931.259285,-1,-1
1.71E+12,3,0.531292992,1882.209023,2931.258786,-1,-1
1.71E+12,3,0.531255889,1882.340429,2931.258316,-1,-1
1.71E+12,3,0.531218898,1882.471453,2931.257877,-1,-1
1.71E+12,3,0.531182023,1882.602084,2931.257466,-1,-1
1.71E+12,3,0.531145266,1882.732315,2931.257085,-1,-1
1.71E+12,3,0.531108628,1882.862139,2931.256731,-1,-1
1.71E+12,3,0.531072111,1882.991551,2931.256404,-1,-1
1.71E+12,3,0.531035717,1883.120544,2931.256102,-1,-1
1.71E+12,3,0.530999447,1883.249113,2931.255823,-1,-1
1.71E+12,3,0.530963303,1883.377253,2931.255564,-1,-1
1.71E+12,3,0.530927286,1883.50496,2931.255324,-1,-1
1.71E+12,3,0.530891397,1883.632231,2931.255101,-1,-1
1.71E+12,3,0.530855636,1883.759063,2931.254892,-1,-1
1.71E+12,3,0.530820004,1883.885455,2931.254694,-1,-1
1.71E+12,3,0.530784501,1884.011406,2931.254505,-1,-1
1.71E+12,3,0.530749126,1884.136918,2931.254322,-1,-1
1.71E+12,3,0.53071388,1884.261991,2931.254141,-1,-1
1.71E+12,3,0.530678761,1884.386629,2931.25396,-1,-1
1.71E+12,3,0.530643769,1884.510834,2931.253773,-1,-1
1.71E+12,3,0.530608902,1884.634611,2931.253578,-1,-1
1.71E+12,3,0.530574159,1884.757964,2931.253371,-1,-1
1.71E+12,3,0.530539539,1884.880897,2931.253148,-1,-1
1.71E+12,3,0.530505041,1885.003416,2931.252906,-1,-1
1.71E+12,3,0.530470662,1885.125528,2931.252641,-1,-1
1.71E+12,3,0.5304364,1885.247241,2931.252348,-1,-1
1.71E+12,3,0.530402253,1885.368563,2931.252023,-1,-1
1.71E+12,3,0.530368218,1885.489502,2931.251662,-1,-1
1.71E+12,3,0.530334293,1885.610069,2931.251262,-1,-1
1.71E+12,3,0.530300474,1885.730274,2931.250818,-1,-1
1.71E+12,3,0.530266759,1885.850128,2931.250327,-1,-1
1.71E+12,3,0.530233143,1885.969645,2931.249784,-1,-1
1.71E+12,3,0.530199624,1886.088838,2931.249184,-1,-1
1.71E+12,3,0.530166196,1886.20772,2931.248526,-1,-1
1.71E+12,3,0.530132857,1886.326305,2931.247806,-1,-1
1.71E+12,3,0.530099602,1886.444607,2931.24702,-1,-1
1.71E+12,3,0.530066427,1886.56264,2931.246166,-1,-1
1.71E+12,3,0.530033328,1886.680419,2931.24524,-1,-1
1.71E+12,3,0.530000302,1886.797959,2931.24424,-1,-1
1.71E+12,3,0.529967343,1886.915274,2931.243165,-1,-1
1.71E+12,3,0.529934447,1887.032379,2931.242013,-1,-1
1.71E+12,3,0.529901611,1887.149289,2931.240784,-1,-1
1.71E+12,3,0.529868831,1887.266019,2931.239476,-1,-1
1.71E+12,3,0.529836101,1887.382585,2931.238092,-1,-1
1.71E+12,3,0.529803417,1887.499001,2931.23663,-1,-1
1.71E+12,3,0.529770776,1887.615285,2931.23509,-1,-1
1.71E+12,3,0.529738172,1887.73145,2931.233473,-1,-1
1.71E+12,3,0.529705601,1887.847513,2931.231781,-1,-1
1.71E+12,3,0.52967306,1887.963487,2931.230015,-1,-1
1.71E+12,3,0.529640544,1888.079387,2931.228176,-1,-1
1.71E+12,3,0.52960805,1888.195228,2931.226266,-1,-1
1.71E+12,3,0.529575572,1888.311025,2931.224289,-1,-1
1.71E+12,3,0.529543108,1888.426789,2931.222248,-1,-1
1.71E+12,3,0.529510653,1888.542535,2931.220146,-1,-1
1.71E+12,3,0.529478204,1888.658275,2931.217987,-1,-1
1.71E+12,3,0.529445758,1888.774021,2931.215777,-1,-1
1.71E+12,3,0.529413311,1888.889785,2931.21352,-1,-1
1.71E+12,3,0.529380862,1889.005575,2931.211222,-1,-1
1.71E+12,3,0.529348405,1889.121404,2931.208888,-1,-1
1.71E+12,3,0.52931594,1889.237281,2931.206524,-1,-1
1.71E+12,3,0.529283463,1889.353217,2931.204136,-1,-1
1.71E+12,3,0.52925097,1889.46922,2931.201731,-1,-1
1.71E+12,3,0.529218461,1889.585299,2931.199314,-1,-1
1.71E+12,3,0.529185933,1889.701463,2931.196892,-1,-1
1.71E+12,3,0.529153383,1889.817718,2931.194471,-1,-1
1.71E+12,3,0.529120809,1889.934072,2931.19206,-1,-1
1.71E+12,3,0.52908821,1890.050532,2931.189664,-1,-1
1.71E+12,3,0.529055584,1890.167104,2931.187291,-1,-1
1.71E+12,3,0.529022929,1890.283796,2931.184948,-1,-1
1.71E+12,3,0.528990243,1890.400611,2931.182641,-1,-1
1.71E+12,3,0.528957525,1890.517555,2931.18038,-1,-1
1.71E+12,3,0.528924775,1890.634631,2931.17817,-1,-1
1.71E+12,3,0.52889199,1890.751844,2931.17602,-1,-1
1.71E+12,3,0.528859171,1890.869196,2931.173936,-1,-1
1.71E+12,3,0.528826316,1890.98669,2931.171926,-1,-1
1.71E+12,3,0.528793425,1891.104327,2931.169996,-1,-1
1.71E+12,3,0.528760498,1891.222109,2931.168152,-1,-1
1.71E+12,3,0.528727534,1891.340038,2931.166402,-1,-1
1.71E+12,3,0.528694532,1891.458115,2931.16475,-1,-1
1.71E+12,3,0.528661493,1891.57634,2931.163204,-1,-1
1.71E+12,3,0.528628417,1891.694714,2931.16177,-1,-1
1.71E+12,3,0.528595304,1891.813235,2931.160452,-1,-1
1.71E+12,3,0.528562153,1891.931904,2931.159256,-1,-1
1.71E+12,3,0.528528966,1892.050719,2931.158186,-1,-1
1.71E+12,3,0.528495743,1892.169676,2931.157247,-1,-1
1.71E+12,3,0.528462485,1892.288775,2931.156442,-1,-1
1.71E+12,3,0.528429192,1892.408012,2931.155775,-1,-1
1.71E+12,3,0.528395866,1892.527384,2931.15525,-1,-1
1.71E+12,3,0.528362506,1892.64689,2931.154869,-1,-1
1.71E+12,3,0.528329115,1892.766526,2931.154634,-1,-1
1.71E+12,3,0.528295692,1892.886289,2931.154547,-1,-1
1.71E+12,3,0.528262238,1893.006174,2931.154612,-1,-1
1.71E+12,3,0.528228756,1893.126178,2931.154826,-1,-1
1.71E+12,3,0.528195246,1893.246296,2931.155192,-1,-1
1.71E+12,3,0.52816171,1893.366523,2931.155709,-1,-1
1.71E+12,3,0.528128149,1893.486854,2931.156375,-1,-1
1.71E+12,3,0.528094565,1893.607283,2931.157188,-1,-1
1.71E+12,3,0.528060959,1893.727804,2931.158148,-1,-1
1.71E+12,3,0.528027334,1893.84841,2931.159252,-1,-1
1.71E+12,3,0.527993691,1893.969093,2931.160498,-1,-1
1.71E+12,3,0.527960032,1894.089848,2931.161882,-1,-1
1.71E+12,3,0.527926359,1894.210667,2931.163402,-1,-1
1.71E+12,3,0.527892675,1894.331543,2931.165053,-1,-1
1.71E+12,3,0.527858981,1894.452467,2931.166831,-1,-1
1.71E+12,3,0.52782528,1894.573431,2931.168733,-1,-1
1.71E+12,3,0.527791575,1894.694427,2931.170754,-1,-1
1.71E+12,3,0.527757867,1894.815444,2931.172887,-1,-1
1.71E+12,3,0.527724161,1894.936471,2931.175129,-1,-1
1.71E+12,3,0.527690458,1895.057499,2931.177474,-1,-1
1.71E+12,3,0.527656763,1895.178517,2931.179916,-1,-1
1.71E+12,3,0.527623076,1895.299515,2931.182452,-1,-1
1.71E+12,3,0.527589403,1895.420481,2931.185073,-1,-1
1.71E+12,3,0.527555746,1895.541402,2931.187774,-1,-1
1.71E+12,3,0.527522109,1895.662266,2931.190551,-1,-1
1.71E+12,3,0.527488495,1895.78306,2931.193396,-1,-1
1.71E+12,3,0.527454909,1895.90377,2931.196303,-1,-1
1.71E+12,3,0.527421354,1896.024381,2931.199266,-1,-1
1.71E+12,3,0.527387834,1896.144879,2931.202279,-1,-1
1.71E+12,3,0.527354354,1896.265249,2931.205337,-1,-1
1.71E+12,3,0.527320917,1896.385475,2931.208434,-1,-1
1.71E+12,3,0.527287529,1896.505541,2931.211563,-1,-1
1.71E+12,3,0.527254194,1896.625427,2931.214719,-1,-1
1.71E+12,3,0.527220918,1896.745117,2931.217898,-1,-1
1.71E+12,3,0.527187706,1896.86459,2931.221093,-1,-1
1.71E+12,3,0.527154562,1896.983829,2931.224299,-1,-1
1.71E+12,3,0.527121492,1897.102815,2931.227512,-1,-1
1.71E+12,3,0.527088502,1897.221526,2931.230727,-1,-1
1.71E+12,3,0.527055598,1897.339943,2931.233939,-1,-1
1.71E+12,3,0.527022785,1897.458042,2931.237143,-1,-1
1.71E+12,3,0.52699007,1897.575801,2931.240337,-1,-1
1.71E+12,3,0.526957459,1897.693198,2931.243515,-1,-1
1.71E+12,3,0.52692496,1897.810207,2931.246673,-1,-1
1.71E+12,3,0.526892577,1897.926806,2931.249808,-1,-1
1.71E+12,3,0.526860319,1898.042968,2931.252918,-1,-1
1.71E+12,3,0.526828193,1898.158667,2931.256,-1,-1
1.71E+12,3,0.526796206,1898.273876,2931.259051,-1,-1
1.71E+12,3,0.526764366,1898.388569,2931.262069,-1,-1
1.71E+12,3,0.52673268,1898.502715,2931.265054,-1,-1
1.71E+12,3,0.526701157,1898.616287,2931.268003,-1,-1
1.71E+12,3,0.526669805,1898.729253,2931.270916,-1,-1
1.71E+12,3,0.526638633,1898.841585,2931.273792,-1,-1
1.71E+12,3,0.526607647,1898.953251,2931.276629,-1,-1
1.71E+12,3,0.526576858,1899.06422,2931.279429,-1,-1
1.71E+12,3,0.526546274,1899.17446,2931.282192,-1,-1
1.71E+12,3,0.526515904,1899.283938,2931.284917,-1,-1
1.71E+12,3,0.526485758,1899.392618,2931.287606,-1,-1
1.71E+12,3,0.526455846,1899.500464,2931.29026,-1,-1
1.71E+12,3,0.526426178,1899.607441,2931.292879,-1,-1
1.71E+12,3,0.526396764,1899.71351,2931.295463,-1,-1
1.71E+12,3,0.526367615,1899.818634,2931.298015,-1,-1
1.71E+12,3,0.526338741,1899.922773,2931.300536,-1,-1
1.71E+12,3,0.526310153,1900.02589,2931.303027,-1,-1
1.71E+12,3,0.526281862,1900.127943,2931.305491,-1,-1
1.71E+12,3,0.52625388,1900.228891,2931.30793,-1,-1
1.71E+12,3,0.526226217,1900.328693,2931.310344,-1,-1
1.71E+12,3,0.526198886,1900.427308,2931.312735,-1,-1
1.71E+12,3,0.526171897,1900.524693,2931.315106,-1,-1
1.71E+12,3,0.526145263,1900.620806,2931.317457,-1,-1
1.71E+12,3,0.526118996,1900.715602,2931.319789,-1,-1
1.71E+12,3,0.526093108,1900.809038,2931.322104,-1,-1
1.71E+12,3,0.52606761,1900.90107,2931.324403,-1,-1
1.71E+12,3,0.526042516,1900.991651,2931.326688,-1,-1
1.71E+12,3,0.526017838,1901.080739,2931.328961,-1,-1
1.71E+12,3,0.525993588,1901.168286,2931.331221,-1,-1
1.71E+12,3,0.525969778,1901.25425,2931.333471,-1,-1
1.71E+12,3,0.525946421,1901.338584,2931.335709,-1,-1
1.71E+12,3,0.525923528,1901.421245,2931.337937,-1,-1
1.71E+12,3,0.525901114,1901.502188,2931.340152,-1,-1
1.71E+12,3,0.525879188,1901.581366,2931.342356,-1,-1
1.71E+12,3,0.525857765,1901.658737,2931.344547,-1,-1
1.71E+12,3,0.525836856,1901.734256,2931.346724,-1,-1
1.71E+12,3,0.525816473,1901.80788,2931.348887,-1,-1
1.71E+12,3,0.525796627,1901.879564,2931.351033,-1,-1
1.71E+12,3,0.525777331,1901.949269,2931.353161,-1,-1
1.71E+12,3,0.525758596,1902.01695,2931.35527,-1,-1
1.71E+12,3,0.525740433,1902.082567,2931.357358,-1,-1
1.71E+12,3,0.525722854,1902.146078,2931.359422,-1,-1
1.71E+12,3,0.52570587,1902.207444,2931.36146,-1,-1
1.71E+12,3,0.52568949,1902.266627,2931.36347,-1,-1
1.71E+12,3,0.525673726,1902.323589,2931.36545,-1,-1
1.71E+12,3,0.525658587,1902.378295,2931.367396,-1,-1
1.71E+12,3,0.525644083,1902.430709,2931.369307,-1,-1
1.71E+12,3,0.525630223,1902.480799,2931.371178,-1,-1
1.71E+12,3,0.525617015,1902.528533,2931.373007,-1,-1
1.71E+12,3,0.525604467,1902.573883,2931.374791,-1,-1
1.71E+12,3,0.525592586,1902.616824,2931.376524,-1,-1
1.71E+12,3,0.525581379,1902.65733,2931.378204,-1,-1
1.71E+12,3,0.525570853,1902.695377,2931.379826,-1,-1
1.71E+12,3,0.525561014,1902.730944,2931.381386,-1,-1
1.71E+12,3,0.525551866,1902.764013,2931.382882,-1,-1
1.71E+12,3,0.525543414,1902.794565,2931.384307,-1,-1
1.71E+12,3,0.525535662,1902.82259,2931.385659,-1,-1
1.71E+12,3,0.525528613,1902.848074,2931.386933,-1,-1
1.71E+12,3,0.525522269,1902.871008,2931.388125,-1,-1
1.71E+12,3,0.525516632,1902.891386,2931.389232,-1,-1
1.71E+12,3,0.525511704,1902.909207,2931.390248,-1,-1
1.71E+12,3,0.525507482,1902.92447,2931.391171,-1,-1
1.71E+12,3,0.525503967,1902.937178,2931.391997,-1,-1
1.71E+12,3,0.525501157,1902.947339,2931.392722,-1,-1
1.71E+12,3,0.525499049,1902.954962,2931.393342,-1,-1
1.71E+12,3,0.525497639,1902.960061,2931.393854,-1,-1
1.71E+12,3,0.525496922,1902.962653,2931.394256,-1,-1
1.71E+12,3,0.525496893,1902.962756,2931.394544,-1,-1
1.71E+12,3,0.525497546,1902.960396,2931.394716,-1,-1
1.71E+12,3,0.525498873,1902.955597,2931.394769,-1,-1
1.71E+12,3,0.525500866,1902.94839,2931.394702,-1,-1
1.71E+12,3,0.525503515,1902.938807,2931.394512,-1,-1
1.71E+12,3,0.525506812,1902.926885,2931.394198,-1,-1
1.71E+12,3,0.525510745,1902.912662,2931.393758,-1,-1
1.71E+12,3,0.525515301,1902.896184,2931.393192,-1,-1
1.71E+12,3,0.525520469,1902.877494,2931.392498,-1,-1
1.71E+12,3,0.525526234,1902.856643,2931.391676,-1,-1
1.71E+12,3,0.525532582,1902.833683,2931.390724,-1,-1
1.71E+12,3,0.525539498,1902.80867,2931.389644,-1,-1
1.71E+12,3,0.525546965,1902.78166,2931.388434,-1,-1
1.71E+12,3,0.525554968,1902.752716,2931.387096,-1,-1
1.71E+12,3,0.525563487,1902.721901,2931.38563,-1,-1
1.71E+12,3,0.525572506,1902.689281,2931.384036,-1,-1
1.71E+12,3,0.525582005,1902.654922,2931.382317,-1,-1
1.71E+12,3,0.525591966,1902.618896,2931.380475,-1,-1
1.71E+12,3,0.525602367,1902.581273,2931.37851,-1,-1
1.71E+12,3,0.525613189,1902.542131,2931.376425,-1,-1
1.71E+12,3,0.525624409,1902.501545,2931.374221,-1,-1
1.71E+12,3,0.525636006,1902.459595,2931.3719,-1,-1
1.71E+12,3,0.525647959,1902.416362,2931.369467,-1,-1
1.71E+12,3,0.525660244,1902.371925,2931.366924,-1,-1
1.71E+12,3,0.525672838,1902.326367,2931.364273,-1,-1
1.71E+12,3,0.525685719,1902.279774,2931.361519,-1,-1
1.71E+12,3,0.525698864,1902.232228,2931.358666,-1,-1
1.71E+12,3,0.525712248,1902.183814,2931.355718,-1,-1
1.71E+12,3,0.525725848,1902.134616,2931.352679,-1,-1
1.71E+12,3,0.525739642,1902.084721,2931.349554,-1,-1
1.71E+12,3,0.525753605,1902.034211,2931.346348,-1,-1
1.71E+12,3,0.525767715,1901.983173,2931.343067,-1,-1
1.71E+12,3,0.525781947,1901.931691,2931.339716,-1,-1
1.71E+12,3,0.525796278,1901.879851,2931.336299,-1,-1
1.71E+12,3,0.525810685,1901.827737,2931.332823,-1,-1
1.71E+12,3,0.525825144,1901.775432,2931.329291,-1,-1
1.71E+12,3,0.525839634,1901.723019,2931.325709,-1,-1
1.71E+12,3,0.52585413,1901.67058,2931.322084,-1,-1
1.71E+12,3,0.525868612,1901.618195,2931.318418,-1,-1
1.71E+12,3,0.525883057,1901.565942,2931.314716,-1,-1
1.71E+12,3,0.525897444,1901.5139,2931.310984,-1,-1
1.71E+12,3,0.525911752,1901.462143,2931.307226,-1,-1
1.71E+12,3,0.525925961,1901.410744,2931.303447,-1,-1
1.71E+12,3,0.525940051,1901.359777,2931.299651,-1,-1
1.71E+12,3,0.525954002,1901.309309,2931.295844,-1,-1
1.71E+12,3,0.525967797,1901.259411,2931.292031,-1,-1
1.71E+12,3,0.525981415,1901.210147,2931.288217,-1,-1
1.71E+12,3,0.525994841,1901.161582,2931.284407,-1,-1
1.71E+12,3,0.526008057,1901.113777,2931.280606,-1,-1
1.71E+12,3,0.526021046,1901.066789,2931.276818,-1,-1
1.71E+12,3,0.526033794,1901.020675,2931.273048,-1,-1
1.71E+12,3,0.526046286,1900.975489,2931.2693,-1,-1
1.71E+12,3,0.526058507,1900.931281,2931.265578,-1,-1
1.71E+12,3,0.526070444,1900.888099,2931.261888,-1,-1
1.71E+12,3,0.526082085,1900.845992,2931.258232,-1,-1
1.71E+12,3,0.526093417,1900.805001,2931.254617,-1,-1
1.71E+12,3,0.526104428,1900.76517,2931.251045,-1,-1
1.71E+12,3,0.526115108,1900.726537,2931.247521,-1,-1
1.71E+12,3,0.526125447,1900.689137,2931.244049,-1,-1
1.71E+12,3,0.526135436,1900.653002,2931.240633,-1,-1
1.71E+12,3,0.526145067,1900.618163,2931.237278,-1,-1
1.71E+12,3,0.526154332,1900.584648,2931.233986,-1,-1
1.71E+12,3,0.526163224,1900.552481,2931.230762,-1,-1
1.71E+12,3,0.526171737,1900.521685,2931.227608,-1,-1
1.71E+12,3,0.526179865,1900.492282,2931.224528,-1,-1
1.71E+12,3,0.526187604,1900.464287,2931.221523,-1,-1
1.71E+12,3,0.526194948,1900.437718,2931.218597,-1,-1
1.71E+12,3,0.526201895,1900.412588,2931.215752,-1,-1
1.71E+12,3,0.52620844,1900.388907,2931.212991,-1,-1
1.71E+12,3,0.526214583,1900.366685,2931.210317,-1,-1
1.71E+12,3,0.52622032,1900.345928,2931.207732,-1,-1
1.71E+12,3,0.526225651,1900.326641,2931.205238,-1,-1
1.71E+12,3,0.526230574,1900.308826,2931.202838,-1,-1
1.71E+12,3,0.52623509,1900.292486,2931.200533,-1,-1
1.71E+12,3,0.526239198,1900.277619,2931.198326,-1,-1
1.71E+12,3,0.5262429,1900.264222,2931.196217,-1,-1
1.71E+12,3,0.526246197,1900.252291,2931.194209,-1,-1
1.71E+12,3,0.526249089,1900.24182,2931.192302,-1,-1
1.71E+12,3,0.526251581,1900.232801,2931.190499,-1,-1
1.71E+12,3,0.526253673,1900.225224,2931.188799,-1,-1
1.71E+12,3,0.526255369,1900.219079,2931.187203,-1,-1
1.71E+12,3,0.526256673,1900.214352,2931.185713,-1,-1
1.71E+12,3,0.526257588,1900.211031,2931.184328,-1,-1
1.71E+12,3,0.526258119,1900.209102,2931.183048,-1,-1
1.71E+12,3,0.526258268,1900.208548,2931.181875,-1,-1
1.71E+12,3,0.526258043,1900.209352,2931.180807,-1,-1
1.71E+12,3,0.526257447,1900.211495,2931.179845,-1,-1
1.71E+12,3,0.526256486,1900.214956,2931.178988,-1,-1
1.71E+12,3,0.526255166,1900.219717,2931.178237,-1,-1
1.71E+12,3,0.526253492,1900.225756,2931.17759,-1,-1
1.71E+12,3,0.526251471,1900.23305,2931.177048,-1,-1
1.71E+12,3,0.52624911,1900.241577,2931.176609,-1,-1
1.71E+12,3,0.526246414,1900.25131,2931.176274,-1,-1
1.71E+12,3,0.526243392,1900.262224,2931.176042,-1,-1
1.71E+12,3,0.52624005,1900.274294,2931.175911,-1,-1
1.71E+12,3,0.526236396,1900.287493,2931.175881,-1,-1
1.71E+12,3,0.526232437,1900.301793,2931.17595,-1,-1
1.71E+12,3,0.526228182,1900.317165,2931.176117,-1,-1
1.71E+12,3,0.526223638,1900.33358,2931.17638,-1,-1
1.71E+12,3,0.526218814,1900.351006,2931.176737,-1,-1
1.71E+12,3,0.52621372,1900.369411,2931.177188,-1,-1
1.71E+12,3,0.526208364,1900.388763,2931.177729,-1,-1
1.71E+12,3,0.526202755,1900.409028,2931.178357,-1,-1
1.71E+12,3,0.526196903,1900.430171,2931.179071,-1,-1
1.71E+12,3,0.526190819,1900.452157,2931.179869,-1,-1
1.71E+12,3,0.526184511,1900.474948,2931.180749,-1,-1
1.71E+12,3,0.526177991,1900.498507,2931.181707,-1,-1
1.71E+12,3,0.526171269,1900.522796,2931.182742,-1,-1
1.71E+12,3,0.526164356,1900.547776,2931.183851,-1,-1
1.71E+12,3,0.526157263,1900.573405,2931.185031,-1,-1
1.71E+12,3,0.526150002,1900.599645,2931.186282,-1,-1
1.71E+12,3,0.526142584,1900.626451,2931.187599,-1,-1
1.71E+12,3,0.526135021,1900.65378,2931.18898,-1,-1
1.71E+12,3,0.526127326,1900.681589,2931.190421,-1,-1
1.71E+12,3,0.52611951,1900.709832,2931.19192,-1,-1
1.71E+12,3,0.526111587,1900.738466,2931.193471,-1,-1
1.71E+12,3,0.526103568,1900.767443,2931.195074,-1,-1
1.71E+12,3,0.526095468,1900.796716,2931.196723,-1,-1
1.71E+12,3,0.526087299,1900.826238,2931.198415,-1,-1
1.71E+12,3,0.526079075,1900.855958,2931.200149,-1,-1
1.71E+12,3,0.52607081,1900.885828,2931.201919,-1,-1
1.71E+12,3,0.526062517,1900.915798,2931.203722,-1,-1
1.71E+12,3,0.526054211,1900.945816,2931.205555,-1,-1
1.71E+12,3,0.526045906,1900.975829,2931.207415,-1,-1
1.71E+12,3,0.526037618,1901.005784,2931.209297,-1,-1
1.71E+12,3,0.52602936,1901.03563,2931.2112,-1,-1
1.71E+12,3,0.526021147,1901.065312,2931.213119,-1,-1
1.71E+12,3,0.526012994,1901.094776,2931.21505,-1,-1
1.71E+12,3,0.526004917,1901.123969,2931.21699,-1,-1
1.71E+12,3,0.525996931,1901.152833,2931.218937,-1,-1
1.71E+12,3,0.525989051,1901.181314,2931.220884,-1,-1
1.71E+12,3,0.525981292,1901.209357,2931.222828,-1,-1
1.71E+12,3,0.52597367,1901.236905,2931.224768,-1,-1
1.71E+12,3,0.5259662,1901.263903,2931.226697,-1,-1
1.71E+12,3,0.525958898,1901.290298,2931.228611,-1,-1
1.71E+12,3,0.525951778,1901.316033,2931.230508,-1,-1
1.71E+12,3,0.525944856,1901.341053,2931.232383,-1,-1
1.71E+12,3,0.525938147,1901.365302,2931.234232,-1,-1
1.71E+12,3,0.525931666,1901.388727,2931.236052,-1,-1
1.71E+12,3,0.52592543,1901.411271,2931.23784,-1,-1
1.71E+12,3,0.525919452,1901.432879,2931.239591,-1,-1
1.71E+12,3,0.525913748,1901.453498,2931.241303,-1,-1
1.71E+12,3,0.525908334,1901.473073,2931.242972,-1,-1
1.71E+12,3,0.525903222,1901.491552,2931.244594,-1,-1
1.71E+12,3,0.525898428,1901.508884,2931.246166,-1,-1
1.71E+12,3,0.525893966,1901.525017,2931.247685,-1,-1
1.71E+12,3,0.52588985,1901.539901,2931.249147,-1,-1
1.71E+12,3,0.525886094,1901.553486,2931.25055,-1,-1
1.71E+12,3,0.52588271,1901.565723,2931.25189,-1,-1
1.71E+12,3,0.525879713,1901.576565,2931.253166,-1,-1
1.71E+12,3,0.525877116,1901.585962,2931.254373,-1,-1
1.71E+12,3,0.525874932,1901.593868,2931.25551,-1,-1
1.71E+12,3,0.525873173,1901.600239,2931.256575,-1,-1
1.71E+12,3,0.525871851,1901.60503,2931.257565,-1,-1
1.71E+12,3,0.525870978,1901.608199,2931.258478,-1,-1
1.71E+12,3,0.525870566,1901.609703,2931.259314,-1,-1
1.71E+12,3,0.525870627,1901.609504,2931.260069,-1,-1
1.71E+12,3,0.525871169,1901.607562,2931.260743,-1,-1
1.71E+12,3,0.525872205,1901.60384,2931.261334,-1,-1
1.71E+12,3,0.525873743,1901.598303,2931.26184,-1,-1
1.71E+12,3,0.525875794,1901.590915,2931.26226,-1,-1
1.71E+12,3,0.525878367,1901.581644,2931.262593,-1,-1
1.71E+12,3,0.525881471,1901.570454,2931.262839,-1,-1
1.71E+12,3,0.525885115,1901.557316,2931.262997,-1,-1
1.71E+12,3,0.525889308,1901.542199,2931.263068,-1,-1
1.71E+12,3,0.525894056,1901.525073,2931.263053,-1,-1
1.71E+12,3,0.525899369,1901.505913,2931.26295,-1,-1
1.71E+12,3,0.525905253,1901.484692,2931.262761,-1,-1
1.71E+12,3,0.525911714,1901.461385,2931.262487,-1,-1
1.71E+12,3,0.525918761,1901.435968,2931.262129,-1,-1
1.71E+12,3,0.525926398,1901.40842,2931.261688,-1,-1
1.71E+12,3,0.525934632,1901.378721,2931.261168,-1,-1
1.71E+12,3,0.525943468,1901.34685,2931.260569,-1,-1
1.71E+12,3,0.525952911,1901.31279,2931.259894,-1,-1
1.71E+12,3,0.525962965,1901.276526,2931.259144,-1,-1
1.71E+12,3,0.525973635,1901.238042,2931.258323,-1,-1
1.71E+12,3,0.525984924,1901.197324,2931.257431,-1,-1
1.71E+12,3,0.525996837,1901.154359,2931.256472,-1,-1
1.71E+12,3,0.526009376,1901.109138,2931.255451,-1,-1
1.71E+12,3,0.526022544,1901.061649,2931.254369,-1,-1
1.71E+12,3,0.526036344,1901.011884,2931.253232,-1,-1
1.71E+12,3,0.526050777,1900.959836,2931.252043,-1,-1
1.71E+12,3,0.526065847,1900.905498,2931.250807,-1,-1
1.71E+12,3,0.526081553,1900.848867,2931.249529,-1,-1
1.71E+12,3,0.526097896,1900.789941,2931.248214,-1,-1
1.71E+12,3,0.526114877,1900.728719,2931.246868,-1,-1
1.71E+12,3,0.526132496,1900.665202,2931.245496,-1,-1
1.71E+12,3,0.526150752,1900.599392,2931.244103,-1,-1
1.71E+12,3,0.526169644,1900.531291,2931.242695,-1,-1
1.71E+12,3,0.526189172,1900.460903,2931.241278,-1,-1
1.71E+12,3,0.526209334,1900.388236,2931.239859,-1,-1
1.71E+12,3,0.526230128,1900.313296,2931.238444,-1,-1
1.71E+12,3,0.526251551,1900.236093,2931.237039,-1,-1
1.71E+12,3,0.526273602,1900.156634,2931.23565,-1,-1
1.71E+12,3,0.526296276,1900.074934,2931.234283,-1,-1
1.71E+12,3,0.52631957,1899.991005,2931.232946,-1,-1
1.71E+12,3,0.526343481,1899.904863,2931.231644,-1,-1
1.71E+12,3,0.526368003,1899.816523,2931.230383,-1,-1
1.71E+12,3,0.526393133,1899.726002,2931.229169,-1,-1
1.71E+12,3,0.526418865,1899.633319,2931.228008,-1,-1
1.71E+12,3,0.526445193,1899.538495,2931.226906,-1,-1
1.71E+12,3,0.526472112,1899.441552,2931.225869,-1,-1
1.71E+12,3,0.526499615,1899.342514,2931.224902,-1,-1
1.71E+12,3,0.526527694,1899.241407,2931.22401,-1,-1
1.71E+12,3,0.526556343,1899.138258,2931.223199,-1,-1
1.71E+12,3,0.526585554,1899.033097,2931.222473,-1,-1
1.71E+12,3,0.526615317,1898.925955,2931.221839,-1,-1
1.71E+12,3,0.526645624,1898.816863,2931.2213,-1,-1
1.71E+12,3,0.526676466,1898.705857,2931.220862,-1,-1
1.71E+12,3,0.526707832,1898.592974,2931.220527,-1,-1
1.71E+12,3,0.526739711,1898.478252,2931.220301,-1,-1
1.71E+12,3,0.526772093,1898.361733,2931.220187,-1,-1
1.71E+12,3,0.526804965,1898.243461,2931.220189,-1,-1
1.71E+12,3,0.526838314,1898.12348,2931.22031,-1,-1
1.71E+12,3,0.526872128,1898.001838,2931.220552,-1,-1
1.71E+12,3,0.526906393,1897.878585,2931.220918,-1,-1
1.71E+12,3,0.526941094,1897.753774,2931.221408,-1,-1
1.71E+12,3,0.526976216,1897.627461,2931.222026,-1,-1
1.71E+12,3,0.527011743,1897.499702,2931.222774,-1,-1
1.71E+12,3,0.527047659,1897.370555,2931.22365,-1,-1
1.71E+12,3,0.527083948,1897.240081,2931.224657,-1,-1
1.71E+12,3,0.527120591,1897.108342,2931.225795,-1,-1
1.71E+12,3,0.52715757,1896.975405,2931.227062,-1,-1
1.71E+12,3,0.527194868,1896.841337,2931.228458,-1,-1
1.71E+12,3,0.527232464,1896.706208,2931.229983,-1,-1
1.71E+12,3,0.527270338,1896.57009,2931.231633,-1,-1
1.71E+12,3,0.527308469,1896.433059,2931.233406,-1,-1
1.71E+12,3,0.527346837,1896.295191,2931.235301,-1,-1
1.71E+12,3,0.527385419,1896.156565,2931.237312,-1,-1
1.71E+12,3,0.527424192,1896.017262,2931.239437,-1,-1
1.71E+12,3,0.527463133,1895.877368,2931.241672,-1,-1
1.71E+12,3,0.527502219,1895.736967,2931.24401,-1,-1
1.71E+12,3,0.527541425,1895.596144,2931.246449,-1,-1
1.71E+12,3,0.527580727,1895.454988,2931.248982,-1,-1
1.71E+12,3,0.527620099,1895.313591,2931.251605,-1,-1
1.71E+12,3,0.527659516,1895.172044,2931.254312,-1,-1
1.71E+12,3,0.527698952,1895.03044,2931.257097,-1,-1
1.71E+12,3,0.52773838,1894.888874,2931.259953,-1,-1
1.71E+12,3,0.527777774,1894.747442,2931.262874,-1,-1
1.71E+12,3,0.527817107,1894.606241,2931.265853,-1,-1
1.71E+12,3,0.527856351,1894.465369,2931.268883,-1,-1
1.71E+12,3,0.527895478,1894.324927,2931.271956,-1,-1
1.71E+12,3,0.527934461,1894.185013,2931.275065,-1,-1
1.71E+12,3,0.52797327,1894.045729,2931.278203,-1,-1
1.71E+12,3,0.528011879,1893.907176,2931.281362,-1,-1
1.71E+12,3,0.528050259,1893.769454,2931.284533,-1,-1
1.71E+12,3,0.528088381,1893.632666,2931.287708,-1,-1
1.71E+12,3,0.528126218,1893.496911,2931.29088,-1,-1
1.71E+12,3,0.528163741,1893.362291,2931.294041,-1,-1
1.71E+12,3,0.528200922,1893.228907,2931.29718,-1,-1
1.71E+12,3,0.528237732,1893.096859,2931.300292,-1,-1
1.71E+12,3,0.528274144,1892.966248,2931.303368,-1,-1
1.71E+12,3,0.528310131,1892.837172,2931.306398,-1,-1
1.71E+12,3,0.528345664,1892.709729,2931.309376,-1,-1
1.71E+12,3,0.528380717,1892.584015,2931.312292,-1,-1
1.71E+12,3,0.528415263,1892.460126,2931.315138,-1,-1
1.71E+12,3,0.528449276,1892.338155,2931.317906,-1,-1
1.71E+12,3,0.528482731,1892.218192,2931.320589,-1,-1
1.71E+12,3,0.528515601,1892.10033,2931.32318,-1,-1
1.71E+12,3,0.528547863,1891.984657,2931.32567,-1,-1
1.71E+12,3,0.528579491,1891.871259,2931.328054,-1,-1
1.71E+12,3,0.528610463,1891.76022,2931.330325,-1,-1
1.71E+12,3,0.528640755,1891.651621,2931.332476,-1,-1
1.71E+12,3,0.528670347,1891.54554,2931.334503,-1,-1
1.71E+12,3,0.528699216,1891.442051,2931.336398,-1,-1
1.71E+12,3,0.528727343,1891.341227,2931.338157,-1,-1
1.71E+12,3,0.528754708,1891.243139,2931.339775,-1,-1
1.71E+12,3,0.528781292,1891.147851,2931.341247,-1,-1
1.71E+12,3,0.528807077,1891.055429,2931.34257,-1,-1
1.71E+12,3,0.528832048,1890.96593,2931.343737,-1,-1
1.71E+12,3,0.528856187,1890.879412,2931.344746,-1,-1
1.71E+12,3,0.528879482,1890.795925,2931.345595,-1,-1
1.71E+12,3,0.528901917,1890.715518,2931.346278,-1,-1
1.71E+12,3,0.528923481,1890.638234,2931.346796,-1,-1
1.71E+12,3,0.528944162,1890.564114,2931.347145,-1,-1
1.71E+12,3,0.528963951,1890.493194,2931.347324,-1,-1
1.71E+12,3,0.528982837,1890.425506,2931.347332,-1,-1
1.71E+12,3,0.529000814,1890.36108,2931.347167,-1,-1
1.71E+12,3,0.529017873,1890.29994,2931.346829,-1,-1
1.71E+12,3,0.52903401,1890.242106,2931.346319,-1,-1
1.71E+12,3,0.529049219,1890.187595,2931.345636,-1,-1
1.71E+12,3,0.529063496,1890.13642,2931.344781,-1,-1
1.71E+12,3,0.529076841,1890.088588,2931.343756,-1,-1
1.71E+12,3,0.52908925,1890.044103,2931.342563,-1,-1
1.71E+12,3,0.529100726,1890.002965,2931.341205,-1,-1
1.71E+12,3,0.529111267,1889.965171,2931.339683,-1,-1
1.71E+12,3,0.529120877,1889.930712,2931.338002,-1,-1
1.71E+12,3,0.529129559,1889.899574,2931.336164,-1,-1
1.71E+12,3,0.529137319,1889.871741,2931.334171,-1,-1
1.71E+12,3,0.529144161,1889.847192,2931.332031,-1,-1
1.71E+12,3,0.529150092,1889.825904,2931.329744,-1,-1
1.71E+12,3,0.529155121,1889.807847,2931.327317,-1,-1
1.71E+12,3,0.529159255,1889.79299,2931.324755,-1,-1
1.71E+12,3,0.529162506,1889.781298,2931.322062,-1,-1
1.71E+12,3,0.529164883,1889.772731,2931.319242,-1,-1
1.71E+12,3,0.529166399,1889.767246,2931.316302,-1,-1
1.71E+12,3,0.529167067,1889.764799,2931.313247,-1,-1
1.71E+12,3,0.529166899,1889.765341,2931.310083,-1,-1
1.71E+12,3,0.52916591,1889.768821,2931.306818,-1,-1
1.71E+12,3,0.529164116,1889.775183,2931.303457,-1,-1
1.71E+12,3,0.529161532,1889.784372,2931.300008,-1,-1
1.71E+12,3,0.529158176,1889.796326,2931.296477,-1,-1
1.71E+12,3,0.529154063,1889.810985,2931.292872,-1,-1
1.71E+12,3,0.529149213,1889.828284,2931.2892,-1,-1
1.71E+12,3,0.529143643,1889.848158,2931.285466,-1,-1
1.71E+12,3,0.529137373,1889.870539,2931.281681,-1,-1
1.71E+12,3,0.529130422,1889.895357,2931.277849,-1,-1
1.71E+12,3,0.52912281,1889.922539,2931.273976,-1,-1
1.71E+12,3,0.529114557,1889.952013,2931.27007,-1,-1
1.71E+12,3,0.529105686,1889.983701,2931.266137,-1,-1
1.71E+12,3,0.529096218,1890.017527,2931.262184,-1,-1
1.71E+12,3,0.529086173,1890.053414,2931.258218,-1,-1
1.71E+12,3,0.529075575,1890.091283,2931.254244,-1,-1
1.71E+12,3,0.529064446,1890.131051,2931.25027,-1,-1
1.71E+12,3,0.529052809,1890.17264,2931.246302,-1,-1
1.71E+12,3,0.529040686,1890.215965,2931.242347,-1,-1
1.71E+12,3,0.529028102,1890.260943,2931.238411,-1,-1
1.71E+12,3,0.529015078,1890.307493,2931.2345,-1,-1
1.71E+12,3,0.52900164,1890.35553,2931.230621,-1,-1
1.71E+12,3,0.528987808,1890.404972,2931.226779,-1,-1
1.71E+12,3,0.528973608,1890.455734,2931.222979,-1,-1
1.71E+12,3,0.528959063,1890.507733,2931.219229,-1,-1
1.71E+12,3,0.528944196,1890.560885,2931.215533,-1,-1
1.71E+12,3,0.52892903,1890.615106,2931.211896,-1,-1
1.71E+12,3,0.52891359,1890.670311,2931.208324,-1,-1
1.71E+12,3,0.528897898,1890.726417,2931.204821,-1,-1
1.71E+12,3,0.528881978,1890.78334,2931.201392,-1,-1
1.71E+12,3,0.528865853,1890.840999,2931.198043,-1,-1
1.71E+12,3,0.528849546,1890.899312,2931.194775,-1,-1
1.71E+12,3,0.528833079,1890.958198,2931.191593,-1,-1
1.71E+12,3,0.528816475,1891.017574,2931.188502,-1,-1
1.71E+12,3,0.528799757,1891.077361,2931.185504,-1,-1
1.71E+12,3,0.528782947,1891.137479,2931.182602,-1,-1
1.71E+12,3,0.528766067,1891.197848,2931.179801,-1,-1
1.71E+12,3,0.528749139,1891.258391,2931.177101,-1,-1
1.71E+12,3,0.528732184,1891.31903,2931.174506,-1,-1
1.71E+12,3,0.528715224,1891.379691,2931.172018,-1,-1
1.71E+12,3,0.52869828,1891.440296,2931.169639,-1,-1
1.71E+12,3,0.528681373,1891.500772,2931.16737,-1,-1
1.71E+12,3,0.528664523,1891.561044,2931.165213,-1,-1
1.71E+12,3,0.528647751,1891.621041,2931.163168,-1,-1
1.71E+12,3,0.528631076,1891.680691,2931.161235,-1,-1
1.71E+12,3,0.528614517,1891.739925,2931.159417,-1,-1
1.71E+12,3,0.528598095,1891.798672,2931.157713,-1,-1
1.71E+12,3,0.528581829,1891.856866,2931.156123,-1,-1
1.71E+12,3,0.528565737,1891.914437,2931.154646,-1,-1
1.71E+12,3,0.528549838,1891.971319,2931.153284,-1,-1
1.71E+12,3,0.528534149,1892.02745,2931.152033,-1,-1
1.71E+12,3,0.528518689,1892.082764,2931.150894,-1,-1
1.71E+12,3,0.528503475,1892.137198,2931.149866,-1,-1
1.71E+12,3,0.528488525,1892.190692,2931.148948,-1,-1
1.71E+12,3,0.528473854,1892.243186,2931.148138,-1,-1
1.71E+12,3,0.52845948,1892.29462,2931.147435,-1,-1
1.71E+12,3,0.528445419,1892.344936,2931.146837,-1,-1
1.71E+12,3,0.528431686,1892.394078,2931.146343,-1,-1
1.71E+12,3,0.528418297,1892.44199,2931.145953,-1,-1
1.71E+12,3,0.528405266,1892.48862,2931.145664,-1,-1
1.71E+12,3,0.52839261,1892.533914,2931.145474,-1,-1
1.71E+12,3,0.528380341,1892.577821,2931.145382,-1,-1
1.71E+12,3,0.528368474,1892.620291,2931.145386,-1,-1
1.71E+12,3,0.528357022,1892.661277,2931.145485,-1,-1
1.71E+12,3,0.528345998,1892.700733,2931.145675,-1,-1
1.71E+12,3,0.528335413,1892.738615,2931.145954,-1,-1
1.71E+12,3,0.528325281,1892.774882,2931.14632,-1,-1
1.71E+12,3,0.528315611,1892.809493,2931.146769,-1,-1
1.71E+12,3,0.528306414,1892.842411,2931.1473,-1,-1
1.71E+12,3,0.528297701,1892.8736,2931.147911,-1,-1
1.71E+12,3,0.528289481,1892.903024,2931.1486,-1,-1
1.71E+12,3,0.528281763,1892.93065,2931.149363,-1,-1
1.71E+12,3,0.528274556,1892.956449,2931.1502,-1,-1
1.71E+12,3,0.528267869,1892.980389,2931.151108,-1,-1
1.71E+12,3,0.528261708,1893.002445,2931.152083,-1,-1
1.71E+12,3,0.528256081,1893.02259,2931.153125,-1,-1
1.71E+12,3,0.528250994,1893.040802,2931.154231,-1,-1
1.71E+12,3,0.528246453,1893.057061,2931.1554,-1,-1
1.71E+12,3,0.528242463,1893.071347,2931.156628,-1,-1
1.71E+12,3,0.528239028,1893.083644,2931.157915,-1,-1
1.71E+12,3,0.528236154,1893.093938,2931.159258,-1,-1
1.71E+12,3,0.528233842,1893.102217,2931.160655,-1,-1
1.71E+12,3,0.528232097,1893.108469,2931.162104,-1,-1
1.71E+12,3,0.528230919,1893.112689,2931.163604,-1,-1
1.71E+12,3,0.528230311,1893.114871,2931.165152,-1,-1
1.71E+12,3,0.528230274,1893.115011,2931.166747,-1,-1
1.71E+12,3,0.528230807,1893.113107,2931.168387,-1,-1
1.71E+12,3,0.52823191,1893.109162,2931.170068,-1,-1
1.71E+12,3,0.528233583,1893.103179,2931.17179,-1,-1
1.71E+12,3,0.528235824,1893.095164,2931.17355,-1,-1
1.71E+12,3,0.52823863,1893.085125,2931.175346,-1,-1
1.71E+12,3,0.528241998,1893.073074,2931.177178,-1,-1
1.71E+12,3,0.528245924,1893.059026,2931.179043,-1,-1
1.71E+12,3,0.528250404,1893.042995,2931.180939,-1,-1
1.71E+12,3,0.528255433,1893.025001,2931.182868,-1,-1
1.71E+12,3,0.528261004,1893.005065,2931.184827,-1,-1
1.71E+12,3,0.528267111,1892.98321,2931.186816,-1,-1
1.71E+12,3,0.528273747,1892.959461,2931.188835,-1,-1
1.71E+12,3,0.528280905,1892.933847,2931.190884,-1,-1
1.71E+12,3,0.528288575,1892.906397,2931.192963,-1,-1
1.71E+12,3,0.528296749,1892.877143,2931.195072,-1,-1
1.71E+12,3,0.528305417,1892.846122,2931.197211,-1,-1
1.71E+12,3,0.528314569,1892.81337,2931.19938,-1,-1
1.71E+12,3,0.528324195,1892.778924,2931.20158,-1,-1
1.71E+12,3,0.528334281,1892.742825,2931.20381,-1,-1
1.71E+12,3,0.528344818,1892.705117,2931.206071,-1,-1
1.71E+12,3,0.528355793,1892.665842,2931.208362,-1,-1
1.71E+12,3,0.528367192,1892.625047,2931.210683,-1,-1
1.71E+12,3,0.528379003,1892.58278,2931.213035,-1,-1
1.71E+12,3,0.528391212,1892.539091,2931.215417,-1,-1
1.71E+12,3,0.528403803,1892.494029,2931.217829,-1,-1
1.71E+12,3,0.528416764,1892.447648,2931.220274,-1,-1
1.71E+12,3,0.528430079,1892.400001,2931.222751,-1,-1
1.71E+12,3,0.528443732,1892.351142,2931.22526,-1,-1
1.71E+12,3,0.528457709,1892.301127,2931.227802,-1,-1
1.71E+12,3,0.528471993,1892.250014,2931.230377,-1,-1
1.71E+12,3,0.528486568,1892.197859,2931.232986,-1,-1
1.71E+12,3,0.528501418,1892.144722,2931.23563,-1,-1
1.71E+12,3,0.528516526,1892.090661,2931.238309,-1,-1
1.71E+12,3,0.528531876,1892.035734,2931.241025,-1,-1
1.71E+12,3,0.528547452,1891.980002,2931.243776,-1,-1
1.71E+12,3,0.528563236,1891.923524,2931.246563,-1,-1
1.71E+12,3,0.528579212,1891.866362,2931.249387,-1,-1
1.71E+12,3,0.528595363,1891.808575,2931.252248,-1,-1
1.71E+12,3,0.528611672,1891.750225,2931.255146,-1,-1
1.71E+12,3,0.528628122,1891.69137,2931.258083,-1,-1
1.71E+12,3,0.528644695,1891.632074,2931.261057,-1,-1
1.71E+12,3,0.528661377,1891.572394,2931.264072,-1,-1
1.71E+12,3,0.528678149,1891.512389,2931.267126,-1,-1
1.71E+12,3,0.528694996,1891.452118,2931.27022,-1,-1
1.71E+12,3,0.528711903,1891.391637,2931.273354,-1,-1
1.71E+12,3,0.528728852,1891.331003,2931.276529,-1,-1
1.71E+12,3,0.528745829,1891.270272,2931.279744,-1,-1
1.71E+12,3,0.528762819,1891.209497,2931.282999,-1,-1
1.71E+12,3,0.528779805,1891.148735,2931.286293,-1,-1
1.71E+12,3,0.528796774,1891.088037,2931.289625,-1,-1
1.71E+12,3,0.528813711,1891.027456,2931.292995,-1,-1
1.71E+12,3,0.528830601,1890.967042,2931.296403,-1,-1
1.71E+12,3,0.528847432,1890.906844,2931.299846,-1,-1
1.71E+12,3,0.528864189,1890.846912,2931.303327,-1,-1
1.71E+12,3,0.528880858,1890.787293,2931.306842,-1,-1
1.71E+12,3,0.528897428,1890.728034,2931.31039,-1,-1
1.71E+12,3,0.528913884,1890.669179,2931.313972,-1,-1
1.71E+12,3,0.528930216,1890.610772,2931.317584,-1,-1
1.71E+12,3,0.528946412,1890.552855,2931.321225,-1,-1
1.71E+12,3,0.52896246,1890.495467,2931.324892,-1,-1
1.71E+12,3,0.52897835,1890.438647,2931.328585,-1,-1
1.71E+12,3,0.528994071,1890.382431,2931.332297,-1,-1
1.71E+12,3,0.529009614,1890.326857,2931.336029,-1,-1
1.71E+12,3,0.529024967,1890.271958,2931.339778,-1,-1
1.71E+12,3,0.529040124,1890.217767,2931.343538,-1,-1
1.71E+12,3,0.529055074,1890.164316,2931.347307,-1,-1
1.71E+12,3,0.529069809,1890.111635,2931.351082,-1,-1
1.71E+12,3,0.529084322,1890.05975,2931.35486,-1,-1
1.71E+12,3,0.529098604,1890.008689,2931.358636,-1,-1
1.71E+12,3,0.52911265,1889.958477,2931.362409,-1,-1
1.71E+12,3,0.529126452,1889.90914,2931.366173,-1,-1
1.71E+12,3,0.529140003,1889.8607,2931.369925,-1,-1
1.71E+12,3,0.529153297,1889.813178,2931.373661,-1,-1
1.71E+12,3,0.529166329,1889.766595,2931.377378,-1,-1
1.71E+12,3,0.529179094,1889.72097,2931.381069,-1,-1
1.71E+12,3,0.529191587,1889.676319,2931.384731,-1,-1
1.71E+12,3,0.529203802,1889.63266,2931.388359,-1,-1
1.71E+12,3,0.529215736,1889.590008,2931.391947,-1,-1
1.71E+12,3,0.529227384,1889.54838,2931.395491,-1,-1
1.71E+12,3,0.529238742,1889.507788,2931.398984,-1,-1
1.71E+12,3,0.529249807,1889.468248,2931.402422,-1,-1
1.71E+12,3,0.529260574,1889.429771,2931.405799,-1,-1
1.71E+12,3,0.529271041,1889.392369,2931.40911,-1,-1
1.71E+12,3,0.529281204,1889.356053,2931.412349,-1,-1
1.71E+12,3,0.529291061,1889.320832,2931.41551,-1,-1
1.71E+12,3,0.529300609,1889.286714,2931.418588,-1,-1
1.71E+12,3,0.529309847,1889.253708,2931.421578,-1,-1
1.71E+12,3,0.529318772,1889.221819,2931.424473,-1,-1
1.71E+12,3,0.529327383,1889.191054,2931.427268,-1,-1
1.71E+12,3,0.529335678,1889.161421,2931.429957,-1,-1
1.71E+12,3,0.529343654,1889.132924,2931.432536,-1,-1
1.71E+12,3,0.529351311,1889.105569,2931.434997,-1,-1
1.71E+12,3,0.529358647,1889.079361,2931.437336,-1,-1
1.71E+12,3,0.529365662,1889.054303,2931.439548,-1,-1
1.71E+12,3,0.529372354,1889.030399,2931.441628,-1,-1
1.71E+12,3,0.529378722,1889.007651,2931.443571,-1,-1
1.71E+12,3,0.529384766,1888.986062,2931.445374,-1,-1
1.71E+12,3,0.529390484,1888.965634,2931.447031,-1,-1
1.71E+12,3,0.529395878,1888.946368,2931.448539,-1,-1
1.71E+12,3,0.529400946,1888.928267,2931.449894,-1,-1
1.71E+12,3,0.529405687,1888.911331,2931.451089,-1,-1
1.71E+12,3,0.529410102,1888.895562,2931.452122,-1,-1
1.71E+12,3,0.529414191,1888.880958,2931.452989,-1,-1
1.71E+12,3,0.529417953,1888.867523,2931.453686,-1,-1
1.71E+12,3,0.529421387,1888.855256,2931.45421,-1,-1
1.71E+12,3,0.529424495,1888.844157,2931.454559,-1,-1
1.71E+12,3,0.529427276,1888.834224,2931.454729,-1,-1
1.71E+12,3,0.529429731,1888.825457,2931.454718,-1,-1
1.71E+12,3,0.529431859,1888.817855,2931.454525,-1,-1
1.71E+12,3,0.529433662,1888.811415,2931.454148,-1,-1
1.71E+12,3,0.52943514,1888.806136,2931.453586,-1,-1
1.71E+12,3,0.529436294,1888.802014,2931.452838,-1,-1
1.71E+12,3,0.529437125,1888.799047,2931.451903,-1,-1
1.71E+12,3,0.529437634,1888.79723,2931.450782,-1,-1
1.71E+12,3,0.529437821,1888.796559,2931.449475,-1,-1
1.71E+12,3,0.52943769,1888.797027,2931.447982,-1,-1
1.71E+12,3,0.529437241,1888.79863,2931.446306,-1,-1
1.71E+12,3,0.529436476,1888.80136,2931.444447,-1,-1
1.71E+12,3,0.529435397,1888.80521,2931.442407,-1,-1
1.71E+12,3,0.529434008,1888.810171,2931.440189,-1,-1
1.71E+12,3,0.529432309,1888.816234,2931.437796,-1,-1
1.71E+12,3,0.529430305,1888.823389,2931.435231,-1,-1
1.71E+12,3,0.529427998,1888.831626,2931.432497,-1,-1
1.71E+12,3,0.529425391,1888.840934,2931.429599,-1,-1
1.71E+12,3,0.529422487,1888.8513,2931.42654,-1,-1
1.71E+12,3,0.529419291,1888.862712,2931.423325,-1,-1
1.71E+12,3,0.529415805,1888.875158,2931.419959,-1,-1
1.71E+12,3,0.529412034,1888.888623,2931.416447,-1,-1
1.71E+12,3,0.529407981,1888.903091,2931.412795,-1,-1
1.71E+12,3,0.529403652,1888.918549,2931.409009,-1,-1
1.71E+12,3,0.52939905,1888.934979,2931.405093,-1,-1
1.71E+12,3,0.529394181,1888.952363,2931.401055,-1,-1
1.71E+12,3,0.52938905,1888.970682,2931.396901,-1,-1
1.71E+12,3,0.529383663,1888.989915,2931.392636,-1,-1
1.71E+12,3,0.529378026,1889.010042,2931.388269,-1,-1
1.71E+12,3,0.529372146,1889.031038,2931.383805,-1,-1
1.71E+12,3,0.529366027,1889.052883,2931.379252,-1,-1
1.71E+12,3,0.529359678,1889.075553,2931.374616,-1,-1
1.71E+12,3,0.529353105,1889.099024,2931.369905,-1,-1
1.71E+12,3,0.529346314,1889.123269,2931.365125,-1,-1
1.71E+12,3,0.529339314,1889.148264,2931.360285,-1,-1
1.71E+12,3,0.529332111,1889.173983,2931.355392,-1,-1
1.71E+12,3,0.529324712,1889.2004,2931.350454,-1,-1
1.71E+12,3,0.529317127,1889.227485,2931.34548,-1,-1
1.71E+12,3,0.529309362,1889.25521,2931.340476,-1,-1
1.71E+12,3,0.529301427,1889.283545,2931.335452,-1,-1
1.71E+12,3,0.529293329,1889.312459,2931.330416,-1,-1
1.71E+12,3,0.529285078,1889.341923,2931.325375,-1,-1
1.71E+12,3,0.529276681,1889.371906,2931.320336,-1,-1
1.71E+12,3,0.529268148,1889.402376,2931.315309,-1,-1
1.71E+12,3,0.529259488,1889.433301,2931.310299,-1,-1
1.71E+12,3,0.529250709,1889.46465,2931.305314,-1,-1
1.71E+12,3,0.529241821,1889.496388,2931.300361,-1,-1
1.71E+12,3,0.529232834,1889.528482,2931.295448,-1,-1
1.71E+12,3,0.529223755,1889.560901,2931.290581,-1,-1
1.71E+12,3,0.529214595,1889.593613,2931.285767,-1,-1
1.71E+12,3,0.529205363,1889.626583,2931.281012,-1,-1
1.71E+12,3,0.529196067,1889.659779,2931.276322,-1,-1
1.71E+12,3,0.529186718,1889.693167,2931.271703,-1,-1
1.71E+12,3,0.529177324,1889.726715,2931.26716,-1,-1
1.71E+12,3,0.529167895,1889.760389,2931.2627,-1,-1
1.71E+12,3,0.529158439,1889.794156,2931.258328,-1,-1
1.71E+12,3,0.529148968,1889.827983,2931.254047,-1,-1
1.71E+12,3,0.529139489,1889.861837,2931.249862,-1,-1
1.71E+12,3,0.529130011,1889.895686,2931.245777,-1,-1
1.71E+12,3,0.529120544,1889.929497,2931.241794,-1,-1
1.71E+12,3,0.529111096,1889.96324,2931.237917,-1,-1
1.71E+12,3,0.529101676,1889.996885,2931.23415,-1,-1
1.71E+12,3,0.529092293,1890.0304,2931.230493,-1,-1
1.71E+12,3,0.529082953,1890.063758,2931.22695,-1,-1
1.71E+12,3,0.529073667,1890.096928,2931.223523,-1,-1
1.71E+12,3,0.52906444,1890.129882,2931.220212,-1,-1
1.71E+12,3,0.529055282,1890.162595,2931.217019,-1,-1
1.71E+12,3,0.529046199,1890.195038,2931.213943,-1,-1
1.71E+12,3,0.529037199,1890.227186,2931.210986,-1,-1
1.71E+12,3,0.529028288,1890.259015,2931.208147,-1,-1
1.71E+12,3,0.529019473,1890.290502,2931.205426,-1,-1
1.71E+12,3,0.529010761,1890.321624,2931.202824,-1,-1
1.71E+12,3,0.529002157,1890.352358,2931.200339,-1,-1
1.71E+12,3,0.528993668,1890.382683,2931.197969,-1,-1
1.71E+12,3,0.528985299,1890.41258,2931.195714,-1,-1
1.71E+12,3,0.528977054,1890.442031,2931.193572,-1,-1
1.71E+12,3,0.52896894,1890.471018,2931.191539,-1,-1
1.71E+12,3,0.52896096,1890.499528,2931.189615,-1,-1
1.71E+12,3,0.528953117,1890.527545,2931.187794,-1,-1
1.71E+12,3,0.528945416,1890.555057,2931.186076,-1,-1
1.71E+12,3,0.528937859,1890.582054,2931.184456,-1,-1
1.71E+12,3,0.52893045,1890.608524,2931.182931,-1,-1
1.71E+12,3,0.528923191,1890.63446,2931.181498,-1,-1
1.71E+12,3,0.528916083,1890.659854,2931.180154,-1,-1
1.71E+12,3,0.528909129,1890.6847,2931.178895,-1,-1
1.71E+12,3,0.528902329,1890.708995,2931.177718,-1,-1
1.71E+12,3,0.528895685,1890.732734,2931.176619,-1,-1
1.71E+12,3,0.528889196,1890.755916,2931.175595,-1,-1
1.71E+12,3,0.528882864,1890.778542,2931.174642,-1,-1
1.71E+12,3,0.528876688,1890.800611,2931.173758,-1,-1
1.71E+12,3,0.528870667,1890.822126,2931.172936,-1,-1
1.71E+12,3,0.528864799,1890.843091,2931.172173,-1,-1
1.71E+12,3,0.528859084,1890.863512,2931.171466,-1,-1
1.71E+12,3,0.52885352,1890.883394,2931.170809,-1,-1
1.71E+12,3,0.528848105,1890.902747,2931.1702,-1,-1
1.71E+12,3,0.528842835,1890.921579,2931.169635,-1,-1
1.71E+12,3,0.528837708,1890.939902,2931.169109,-1,-1
1.71E+12,3,0.528832719,1890.957729,2931.168621,-1,-1
1.71E+12,3,0.528827866,1890.975073,2931.168166,-1,-1
1.71E+12,3,0.528823144,1890.991949,2931.167739,-1,-1
1.71E+12,3,0.528818549,1891.008373,2931.167338,-1,-1
1.71E+12,3,0.528814075,1891.024363,2931.16696,-1,-1
1.71E+12,3,0.528809718,1891.039936,2931.166601,-1,-1
1.71E+12,3,0.528805472,1891.055111,2931.166258,-1,-1
1.71E+12,3,0.528801332,1891.069909,2931.165928,-1,-1
1.71E+12,3,0.528797292,1891.08435,2931.165608,-1,-1
1.71E+12,3,0.528793346,1891.098455,2931.165295,-1,-1
1.71E+12,3,0.528789487,1891.112249,2931.164989,-1,-1
1.71E+12,3,0.528785709,1891.125755,2931.164685,-1,-1
1.71E+12,3,0.528782005,1891.138998,2931.164382,-1,-1
1.71E+12,3,0.528778367,1891.152004,2931.164079,-1,-1
1.71E+12,3,0.528774789,1891.164799,2931.163772,-1,-1
1.71E+12,3,0.528771261,1891.177412,2931.163462,-1,-1
1.71E+12,3,0.528767777,1891.18987,2931.163147,-1,-1
1.71E+12,3,0.528764328,1891.202203,2931.162825,-1,-1
1.71E+12,3,0.528760907,1891.214439,2931.162498,-1,-1
1.71E+12,3,0.528757504,1891.226609,2931.162163,-1,-1
1.71E+12,3,0.528754111,1891.238743,2931.161821,-1,-1
1.71E+12,3,0.52875072,1891.250872,2931.161471,-1,-1
1.71E+12,3,0.528747322,1891.263027,2931.161112,-1,-1
1.71E+12,3,0.528743909,1891.275236,2931.160746,-1,-1
1.71E+12,3,0.528740471,1891.287533,2931.160371,-1,-1
1.71E+12,3,0.528737001,1891.299947,2931.159991,-1,-1
1.71E+12,3,0.52873349,1891.312509,2931.159603,-1,-1
1.71E+12,3,0.528729929,1891.325251,2931.15921,-1,-1
1.71E+12,3,0.528726309,1891.338205,2931.158815,-1,-1
1.71E+12,3,0.52872262,1891.351404,2931.158416,-1,-1
1.71E+12,3,0.528718855,1891.364879,2931.158017,-1,-1
1.71E+12,3,0.528715004,1891.378663,2931.157619,-1,-1
1.71E+12,3,0.528711057,1891.392788,2931.157224,-1,-1
1.71E+12,3,0.528707006,1891.407286,2931.156833,-1,-1
1.71E+12,3,0.528702843,1891.42219,2931.156449,-1,-1
1.71E+12,3,0.528698557,1891.437532,2931.156073,-1,-1
1.71E+12,3,0.52869414,1891.453342,2931.155708,-1,-1
1.71E+12,3,0.528689584,1891.469654,2931.155355,-1,-1
1.71E+12,3,0.52868488,1891.486496,2931.155019,-1,-1
1.71E+12,3,0.528680018,1891.503902,2931.1547,-1,-1
1.71E+12,3,0.528674991,1891.521902,2931.154402,-1,-1
1.71E+12,3,0.52866979,1891.540528,2931.154127,-1,-1
1.71E+12,3,0.528664405,1891.55981,2931.153879,-1,-1
1.71E+12,3,0.528658829,1891.579778,2931.153661,-1,-1
1.71E+12,3,0.528653053,1891.600464,2931.153476,-1,-1
1.71E+12,3,0.528647069,1891.621895,2931.153327,-1,-1
1.71E+12,3,0.528640869,1891.644101,2931.153219,-1,-1
1.71E+12,3,0.528634445,1891.66711,2931.153154,-1,-1
1.71E+12,3,0.52862779,1891.690948,2931.153134,-1,-1
1.71E+12,3,0.528620896,1891.715643,2931.153162,-1,-1
1.71E+12,3,0.528613757,1891.741219,2931.153241,-1,-1
1.71E+12,3,0.528606364,1891.767703,2931.153373,-1,-1
1.71E+12,3,0.528598712,1891.795119,2931.153562,-1,-1
1.71E+12,3,0.528590793,1891.823492,2931.153809,-1,-1
1.71E+12,3,0.5285826,1891.852844,2931.154119,-1,-1
1.71E+12,3,0.528574129,1891.883198,2931.154493,-1,-1
1.71E+12,3,0.528565371,1891.914579,2931.154935,-1,-1
1.71E+12,3,0.528556321,1891.947009,2931.155448,-1,-1
1.71E+12,3,0.528546973,1891.98051,2931.156034,-1,-1
1.71E+12,3,0.528537321,1892.015103,2931.156696,-1,-1
1.71E+12,3,0.528527358,1892.05081,2931.157436,-1,-1
1.71E+12,3,0.52851708,1892.087649,2931.158258,-1,-1
1.71E+12,3,0.52850648,1892.125641,2931.159164,-1,-1
1.71E+12,3,0.528495555,1892.164803,2931.160154,-1,-1
1.71E+12,3,0.528484299,1892.205154,2931.16123,-1,-1
1.71E+12,3,0.528472707,1892.246712,2931.162394,-1,-1
1.71E+12,3,0.528460774,1892.289493,2931.163644,-1,-1
1.71E+12,3,0.528448496,1892.333512,2931.164983,-1,-1
1.71E+12,3,0.528435869,1892.378786,2931.166411,-1,-1
1.71E+12,3,0.528422889,1892.42533,2931.167928,-1,-1
1.71E+12,3,0.528409552,1892.473156,2931.169534,-1,-1
1.71E+12,3,0.528395854,1892.52228,2931.171229,-1,-1
1.71E+12,3,0.528381791,1892.572713,2931.173012,-1,-1
1.71E+12,3,0.528367361,1892.624468,2931.174884,-1,-1
1.71E+12,3,0.52835256,1892.677556,2931.176842,-1,-1
1.71E+12,3,0.528337385,1892.731987,2931.178885,-1,-1
1.71E+12,3,0.528321835,1892.78777,2931.181013,-1,-1
1.71E+12,3,0.528305906,1892.844915,2931.183223,-1,-1
1.71E+12,3,0.528289596,1892.90343,2931.185512,-1,-1
1.71E+12,3,0.528272903,1892.96332,2931.187879,-1,-1
1.71E+12,3,0.528255827,1893.024595,2931.190321,-1,-1
1.71E+12,3,0.528238363,1893.087259,2931.192835,-1,-1
1.71E+12,3,0.528220512,1893.151321,2931.195417,-1,-1
1.71E+12,3,0.528202271,1893.216785,2931.198066,-1,-1
1.71E+12,3,0.528183639,1893.283658,2931.200775,-1,-1
1.71E+12,3,0.528164615,1893.351943,2931.203542,-1,-1
1.71E+12,3,0.528145197,1893.421643,2931.206362,-1,-1
1.71E+12,3,0.528125387,1893.492761,2931.209232,-1,-1
1.71E+12,3,0.528105182,1893.5653,2931.212145,-1,-1
1.71E+12,3,0.528084582,1893.639259,2931.2151,-1,-1
1.71E+12,3,0.528063589,1893.71464,2931.218089,-1,-1
1.71E+12,3,0.528042201,1893.791443,2931.221109,-1,-1
1.71E+12,3,0.528020419,1893.869665,2931.224154,-1,-1
1.71E+12,3,0.527998244,1893.949305,2931.227216,-1,-1
1.71E+12,3,0.527975678,1894.03036,2931.230292,-1,-1
1.71E+12,3,0.527952719,1894.112826,2931.233376,-1,-1
1.71E+12,3,0.527929371,1894.196701,2931.23646,-1,-1
1.71E+12,3,0.527905634,1894.281979,2931.23954,-1,-1
1.71E+12,3,0.52788151,1894.368655,2931.242611,-1,-1
1.71E+12,3,0.527857001,1894.456723,2931.245665,-1,-1
1.71E+12,3,0.527832108,1894.546177,2931.248698,-1,-1
1.71E+12,3,0.527806833,1894.637008,2931.251704,-1,-1
1.71E+12,3,0.527781179,1894.729211,2931.254676,-1,-1
1.71E+12,3,0.527755149,1894.822776,2931.257607,-1,-1
1.71E+12,3,0.527728745,1894.917695,2931.260494,-1,-1
1.71E+12,3,0.527701969,1895.013956,2931.263327,-1,-1
1.71E+12,3,0.527674824,1895.111551,2931.266103,-1,-1
1.71E+12,3,0.527647315,1895.21047,2931.268815,-1,-1
1.71E+12,3,0.527619443,1895.3107,2931.271456,-1,-1
1.71E+12,3,0.527591212,1895.41223,2931.274023,-1,-1
1.71E+12,3,0.527562625,1895.515048,2931.276507,-1,-1
1.71E+12,3,0.527533687,1895.619142,2931.278904,-1,-1
1.71E+12,3,0.527504401,1895.7245,2931.281208,-1,-1
1.71E+12,3,0.527474769,1895.831107,2931.283414,-1,-1
1.71E+12,3,0.527444798,1895.93895,2931.285517,-1,-1
1.71E+12,3,0.52741449,1896.048013,2931.287514,-1,-1
1.71E+12,3,0.52738385,1896.158283,2931.2894,-1,-1
1.71E+12,3,0.527352883,1896.269743,2931.291173,-1,-1
1.71E+12,3,0.527321592,1896.382379,2931.29283,-1,-1
1.71E+12,3,0.527289982,1896.496173,2931.294368,-1,-1
1.71E+12,3,0.527258058,1896.611112,2931.295784,-1,-1
1.71E+12,3,0.527225825,1896.727176,2931.297079,-1,-1
1.71E+12,3,0.527193287,1896.84435,2931.298248,-1,-1
1.71E+12,3,0.527160449,1896.962616,2931.299291,-1,-1
1.71E+12,3,0.527127317,1897.081956,2931.300207,-1,-1
1.71E+12,3,0.527093895,1897.202352,2931.300996,-1,-1
1.71E+12,3,0.527060189,1897.323787,2931.301656,-1,-1
1.71E+12,3,0.527026203,1897.446242,2931.30219,-1,-1
1.71E+12,3,0.526991944,1897.569697,2931.302598,-1,-1
1.71E+12,3,0.526957416,1897.694136,2931.30288,-1,-1
1.71E+12,3,0.526922623,1897.819539,2931.303039,-1,-1
1.71E+12,3,0.526887573,1897.94589,2931.303075,-1,-1
1.71E+12,3,0.526852269,1898.073169,2931.302991,-1,-1
1.71E+12,3,0.526816717,1898.201355,2931.302789,-1,-1
1.71E+12,3,0.526780923,1898.33043,2931.302473,-1,-1
1.71E+12,3,0.526744892,1898.460374,2931.302047,-1,-1
1.71E+12,3,0.52670863,1898.591168,2931.301513,-1,-1
1.71E+12,3,0.526672143,1898.722789,2931.300875,-1,-1
1.71E+12,3,0.526635437,1898.85522,2931.300136,-1,-1
1.71E+12,3,0.526598516,1898.988439,2931.299302,-1,-1
1.71E+12,3,0.526561386,1899.122428,2931.298376,-1,-1
1.71E+12,3,0.526524054,1899.257166,2931.297362,-1,-1
1.71E+12,3,0.526486524,1899.392634,2931.296265,-1,-1
1.71E+12,3,0.526448801,1899.528813,2931.295089,-1,-1
1.71E+12,3,0.526410893,1899.665681,2931.29384,-1,-1
1.71E+12,3,0.526372804,1899.80322,2931.292525,-1,-1
1.71E+12,3,0.526334539,1899.941409,2931.291147,-1,-1
1.71E+12,3,0.526296105,1900.08023,2931.289713,-1,-1
1.71E+12,3,0.526257506,1900.219663,2931.288228,-1,-1
1.71E+12,3,0.526218748,1900.359689,2931.286697,-1,-1
1.71E+12,3,0.526179836,1900.500289,2931.285125,-1,-1
1.71E+12,3,0.526140776,1900.641442,2931.283518,-1,-1
1.71E+12,3,0.526101573,1900.783131,2931.281881,-1,-1
1.71E+12,3,0.526062233,1900.925335,2931.28022,-1,-1
1.71E+12,3,0.526022761,1901.068036,2931.27854,-1,-1
1.71E+12,3,0.525983161,1901.211216,2931.276845,-1,-1
1.71E+12,3,0.52594344,1901.354857,2931.27514,-1,-1
1.71E+12,3,0.525903601,1901.498941,2931.27343,-1,-1
1.71E+12,3,0.52586365,1901.643451,2931.271718,-1,-1
1.71E+12,3,0.525823591,1901.788371,2931.27001,-1,-1
1.71E+12,3,0.525783429,1901.933685,2931.268309,-1,-1
1.71E+12,3,0.525743168,1902.079376,2931.26662,-1,-1
1.71E+12,3,0.525702813,1902.225427,2931.264946,-1,-1
1.71E+12,3,0.525662369,1902.371822,2931.263289,-1,-1
1.71E+12,3,0.52562184,1902.518545,2931.261654,-1,-1
1.71E+12,3,0.525581231,1902.665578,2931.260043,-1,-1
1.71E+12,3,0.525540546,1902.812907,2931.258459,-1,-1
1.71E+12,3,0.525499789,1902.960516,2931.256904,-1,-1
1.71E+12,3,0.525458965,1903.108392,2931.255381,-1,-1
1.71E+12,3,0.525418076,1903.256521,2931.25389,-1,-1
1.71E+12,3,0.525377128,1903.404889,2931.252435,-1,-1
1.71E+12,3,0.525336123,1903.553483,2931.251015,-1,-1
1.71E+12,3,0.525295065,1903.70229,2931.249634,-1,-1
1.71E+12,3,0.525253958,1903.851297,2931.24829,-1,-1
1.71E+12,3,0.525212804,1904.000494,2931.246984,-1,-1
1.71E+12,3,0.525171607,1904.14987,2931.245716,-1,-1
1.71E+12,3,0.525130371,1904.299413,2931.244488,-1,-1
1.71E+12,3,0.525089097,1904.449112,2931.243298,-1,-1
1.71E+12,3,0.525047789,1904.598958,2931.242148,-1,-1
1.71E+12,3,0.525006449,1904.748941,2931.241035,-1,-1
1.71E+12,3,0.524965081,1904.899051,2931.239958,-1,-1
1.71E+12,3,0.524923686,1905.049281,2931.238917,-1,-1
1.71E+12,3,0.524882266,1905.199623,2931.237909,-1,-1
1.71E+12,3,0.524840824,1905.350069,2931.236934,-1,-1
1.71E+12,3,0.524799361,1905.500614,2931.235988,-1,-1
1.71E+12,3,0.524757879,1905.65125,2931.235071,-1,-1
1.71E+12,3,0.524716379,1905.801973,2931.234178,-1,-1
1.71E+12,3,0.524674864,1905.952777,2931.233308,-1,-1
1.71E+12,3,0.524633334,1906.103657,2931.232459,-1,-1
1.71E+12,3,0.524591791,1906.25461,2931.231627,-1,-1
1.71E+12,3,0.524550235,1906.405632,2931.230808,-1,-1
1.71E+12,3,0.524508667,1906.556721,2931.23,-1,-1
1.71E+12,3,0.524467088,1906.707875,2931.229201,-1,-1
1.71E+12,3,0.524425498,1906.859093,2931.228407,-1,-1
1.71E+12,3,0.524383897,1907.010372,2931.227616,-1,-1
1.71E+12,3,0.524342287,1907.161712,2931.226825,-1,-1
1.71E+12,3,0.524300667,1907.313111,2931.226031,-1,-1
1.71E+12,3,0.524259037,1907.464569,2931.225231,-1,-1
1.71E+12,3,0.524217398,1907.616084,2931.224424,-1,-1
1.71E+12,3,0.524175751,1907.767656,2931.223606,-1,-1
1.71E+12,3,0.524134094,1907.919284,2931.222775,-1,-1
1.71E+12,3,0.524092429,1908.070969,2931.221927,-1,-1
1.71E+12,3,0.524050755,1908.222711,2931.221063,-1,-1
1.71E+12,3,0.524009071,1908.374511,2931.220179,-1,-1
1.71E+12,3,0.523967378,1908.526371,2931.219274,-1,-1
1.71E+12,3,0.523925675,1908.678292,2931.218348,-1,-1
1.71E+12,3,0.523883961,1908.830276,2931.217397,-1,-1
1.71E+12,3,0.523842236,1908.982325,2931.216423,-1,-1
1.71E+12,3,0.5238005,1909.134442,2931.215425,-1,-1
1.71E+12,3,0.523758751,1909.286628,2931.214401,-1,-1
1.71E+12,3,0.523716989,1909.438885,2931.213352,-1,-1
1.71E+12,3,0.523675214,1909.591216,2931.212278,-1,-1
1.71E+12,3,0.523633426,1909.743621,2931.211178,-1,-1
1.71E+12,3,0.523591623,1909.896104,2931.210055,-1,-1
1.71E+12,3,0.523549805,1910.048665,2931.20891,-1,-1
1.71E+12,3,0.523507972,1910.201308,2931.207744,-1,-1
1.71E+12,3,0.523466122,1910.354036,2931.206559,-1,-1
1.71E+12,3,0.523424255,1910.506852,2931.205357,-1,-1
1.71E+12,3,0.52338237,1910.65976,2931.204141,-1,-1
1.71E+12,3,0.523340465,1910.812764,2931.202912,-1,-1
1.71E+12,3,0.523298541,1910.965866,2931.201674,-1,-1
1.71E+12,3,0.523256594,1911.119072,2931.200431,-1,-1
1.71E+12,3,0.523214625,1911.272385,2931.199185,-1,-1
1.71E+12,3,0.523172633,1911.425808,2931.197941,-1,-1
1.71E+12,3,0.523130617,1911.579345,2931.196704,-1,-1
1.71E+12,3,0.523088575,1911.733001,2931.195475,-1,-1
1.71E+12,3,0.523046506,1911.886779,2931.19426,-1,-1
1.71E+12,3,0.52300441,1912.040685,2931.193062,-1,-1
1.71E+12,3,0.522962284,1912.194721,2931.191884,-1,-1
1.71E+12,3,0.522920128,1912.348893,2931.190731,-1,-1
1.71E+12,3,0.522877942,1912.503202,2931.189609,-1,-1
1.71E+12,3,0.522835724,1912.657653,2931.188521,-1,-1
1.71E+12,3,0.522793473,1912.812249,2931.187473,-1,-1
1.71E+12,3,0.522751189,1912.966993,2931.18647,-1,-1
1.71E+12,3,0.52270887,1913.121888,2931.185518,-1,-1
1.71E+12,3,0.522666516,1913.276938,2931.184622,-1,-1
1.71E+12,3,0.522624126,1913.432146,2931.183785,-1,-1
1.71E+12,3,0.522581699,1913.587515,2931.183014,-1,-1
1.71E+12,3,0.522539234,1913.743048,2931.182313,-1,-1
1.71E+12,3,0.52249673,1913.898749,2931.181687,-1,-1
1.71E+12,3,0.522454186,1914.054622,2931.181141,-1,-1
1.71E+12,3,0.522411602,1914.210669,2931.180679,-1,-1
1.71E+12,3,0.522368977,1914.366893,2931.180306,-1,-1
1.71E+12,3,0.52232631,1914.523295,2931.180025,-1,-1
1.71E+12,3,0.522283601,1914.679878,2931.179841,-1,-1
1.71E+12,3,0.522240849,1914.836643,2931.179758,-1,-1
1.71E+12,3,0.522198055,1914.993592,2931.179778,-1,-1
1.71E+12,3,0.522155217,1915.150727,2931.179906,-1,-1
1.71E+12,3,0.522112334,1915.308049,2931.180144,-1,-1
1.71E+12,3,0.522069408,1915.46556,2931.180495,-1,-1
1.71E+12,3,0.522026438,1915.623259,2931.180963,-1,-1
1.71E+12,3,0.521983423,1915.781146,2931.18155,-1,-1
1.71E+12,3,0.521940364,1915.939222,2931.182257,-1,-1
1.71E+12,3,0.521897262,1916.097484,2931.183086,-1,-1
1.71E+12,3,0.521854116,1916.255933,2931.184038,-1,-1
1.71E+12,3,0.521810926,1916.414567,2931.185112,-1,-1
1.71E+12,3,0.521767695,1916.573384,2931.186308,-1,-1
1.71E+12,3,0.521724421,1916.73238,2931.187625,-1,-1
1.71E+12,3,0.521681107,1916.891552,2931.189062,-1,-1
1.71E+12,3,0.521637754,1917.050895,2931.190617,-1,-1
1.71E+12,3,0.521594362,1917.210405,2931.19229,-1,-1
1.71E+12,3,0.521550933,1917.370078,2931.194075,-1,-1
1.71E+12,3,0.521507469,1917.529908,2931.195973,-1,-1
1.71E+12,3,0.521463971,1917.689888,2931.197978,-1,-1
1.71E+12,3,0.521420441,1917.850011,2931.200088,-1,-1
1.71E+12,3,0.521376882,1918.010268,2931.2023,-1,-1
1.71E+12,3,0.521333296,1918.17065,2931.20461,-1,-1
1.71E+12,3,0.521289686,1918.331145,2931.207011,-1,-1
1.71E+12,3,0.521246056,1918.491742,2931.2095,-1,-1
1.71E+12,3,0.521202408,1918.652428,2931.212072,-1,-1
1.71E+12,3,0.521158747,1918.813191,2931.214718,-1,-1
1.71E+12,3,0.521115076,1918.974013,2931.217435,-1,-1
1.71E+12,3,0.5210714,1919.13488,2931.220217,-1,-1
1.71E+12,3,0.521027724,1919.295774,2931.223056,-1,-1
1.71E+12,3,0.520984053,1919.456673,2931.225946,-1,-1
1.71E+12,3,0.520940392,1919.617558,2931.22888,-1,-1
1.71E+12,3,0.520896748,1919.778407,2931.231851,-1,-1
1.71E+12,3,0.520853126,1919.939199,2931.234852,-1,-1
1.71E+12,3,0.520809533,1920.099908,2931.237876,-1,-1
1.71E+12,3,0.520765976,1920.260512,2931.240913,-1,-1
1.71E+12,3,0.520722461,1920.420981,2931.243957,-1,-1
1.71E+12,3,0.520678996,1920.581289,2931.246999,-1,-1
1.71E+12,3,0.52063559,1920.741404,2931.250031,-1,-1
1.71E+12,3,0.52059225,1920.901295,2931.253045,-1,-1
1.71E+12,3,0.520548987,1921.060928,2931.256033,-1,-1
1.71E+12,3,0.520505808,1921.220272,2931.258985,-1,-1
1.71E+12,3,0.520462723,1921.379291,2931.261895,-1,-1
1.71E+12,3,0.520419741,1921.53795,2931.264754,-1,-1
1.71E+12,3,0.520376874,1921.69621,2931.267552,-1,-1
1.71E+12,3,0.520334129,1921.854035,2931.270282,-1,-1
1.71E+12,3,0.520291519,1922.011385,2931.272937,-1,-1
1.71E+12,3,0.520249054,1922.16822,2931.275509,-1,-1
1.71E+12,3,0.520206745,1922.324501,2931.277991,-1,-1
1.71E+12,3,0.520164603,1922.480184,2931.280377,-1,-1
1.71E+12,3,0.520122639,1922.635229,2931.282661,-1,-1
1.71E+12,3,0.520080864,1922.789591,2931.284838,-1,-1
1.71E+12,3,0.520039291,1922.943229,2931.286902,-1,-1
1.71E+12,3,0.519997931,1923.096098,2931.288848,-1,-1
1.71E+12,3,0.519956795,1923.248156,2931.290672,-1,-1
1.71E+12,3,0.519915894,1923.399361,2931.292368,-1,-1
1.71E+12,3,0.519875241,1923.549669,2931.293933,-1,-1
1.71E+12,3,0.519834847,1923.699039,2931.295365,-1,-1
1.71E+12,3,0.519794722,1923.847426,2931.296659,-1,-1
1.71E+12,3,0.519754879,1923.99479,2931.297812,-1,-1
1.71E+12,3,0.519715328,1924.14109,2931.298824,-1,-1
1.71E+12,3,0.51967608,1924.286285,2931.299693,-1,-1
1.71E+12,3,0.519637145,1924.430336,2931.300417,-1,-1
1.71E+12,3,0.519598535,1924.573203,2931.300997,-1,-1
1.71E+12,3,0.519560258,1924.71485,2931.301432,-1,-1
1.71E+12,3,0.519522325,1924.85524,2931.301722,-1,-1
1.71E+12,3,0.519484745,1924.994339,2931.30187,-1,-1
1.71E+12,3,0.519447527,1925.132112,2931.301877,-1,-1
1.71E+12,3,0.51941068,1925.268528,2931.301745,-1,-1
1.71E+12,3,0.519374211,1925.403558,2931.301476,-1,-1
1.71E+12,3,0.519338127,1925.537174,2931.301074,-1,-1
1.71E+12,3,0.519302436,1925.66935,2931.300539,-1,-1
1.71E+12,3,0.519267143,1925.800064,2931.299876,-1,-1
1.71E+12,3,0.519232254,1925.929295,2931.299089,-1,-1
1.71E+12,3,0.519197775,1926.057021,2931.298181,-1,-1
1.71E+12,3,0.51916371,1926.183227,2931.297157,-1,-1
1.71E+12,3,0.519130063,1926.307898,2931.296021,-1,-1
1.71E+12,3,0.519096836,1926.431022,2931.294779,-1,-1
1.71E+12,3,0.519064033,1926.55259,2931.293435,-1,-1
1.71E+12,3,0.519031655,1926.672595,2931.291995,-1,-1
1.71E+12,3,0.518999703,1926.791034,2931.290464,-1,-1
1.71E+12,3,0.518968177,1926.907905,2931.288848,-1,-1
1.71E+12,3,0.518937077,1927.02321,2931.287154,-1,-1
1.71E+12,3,0.518906401,1927.136955,2931.285387,-1,-1
1.71E+12,3,0.518876147,1927.249145,2931.283553,-1,-1
1.71E+12,3,0.518846314,1927.35979,2931.281658,-1,-1
1.71E+12,3,0.518816897,1927.468902,2931.279709,-1,-1
1.71E+12,3,0.518787892,1927.576497,2931.277711,-1,-1
1.71E+12,3,0.518759295,1927.682591,2931.275672,-1,-1
1.71E+12,3,0.518731101,1927.787205,2931.273596,-1,-1
1.71E+12,3,0.518703302,1927.890361,2931.271491,-1,-1
1.71E+12,3,0.518675893,1927.992082,2931.269361,-1,-1
1.71E+12,3,0.518648867,1928.092394,2931.267212,-1,-1
1.71E+12,3,0.518622216,1928.191328,2931.26505,-1,-1
1.71E+12,3,0.518595931,1928.288914,2931.26288,-1,-1
1.71E+12,3,0.518570004,1928.385184,2931.260707,-1,-1
1.71E+12,3,0.518544424,1928.480176,2931.258537,-1,-1
1.71E+12,3,0.518519181,1928.573927,2931.256375,-1,-1
1.71E+12,3,0.518494266,1928.666474,2931.254226,-1,-1
1.71E+12,3,0.518469667,1928.757859,2931.252094,-1,-1
1.71E+12,3,0.518445372,1928.848123,2931.249983,-1,-1
1.71E+12,3,0.51842137,1928.937311,2931.247896,-1,-1
1.71E+12,3,0.51839765,1929.025467,2931.245839,-1,-1
1.71E+12,3,0.518374198,1929.112635,2931.243814,-1,-1
1.71E+12,3,0.518351003,1929.19886,2931.241823,-1,-1
1.71E+12,3,0.518328052,1929.284191,2931.239871,-1,-1
1.71E+12,3,0.518305332,1929.368673,2931.237961,-1,-1
1.71E+12,3,0.518282831,1929.452357,2931.236094,-1,-1
1.71E+12,3,0.518260534,1929.535289,2931.234274,-1,-1
1.71E+12,3,0.518238429,1929.617519,2931.232504,-1,-1
1.71E+12,3,0.518216503,1929.699093,2931.230784,-1,-1
1.71E+12,3,0.518194744,1929.78006,2931.229118,-1,-1
1.71E+12,3,0.518173138,1929.860465,2931.227506,-1,-1
1.71E+12,3,0.518151674,1929.940355,2931.225951,-1,-1
1.71E+12,3,0.518130339,1930.019775,2931.224452,-1,-1
1.71E+12,3,0.518109121,1930.098771,2931.223011,-1,-1
1.71E+12,3,0.518088008,1930.177386,2931.221628,-1,-1
1.71E+12,3,0.518066988,1930.255664,2931.220303,-1,-1
1.71E+12,3,0.51804605,1930.333646,2931.219037,-1,-1
1.71E+12,3,0.518025184,1930.411374,2931.217829,-1,-1
1.71E+12,3,0.518004377,1930.488889,2931.216678,-1,-1
1.71E+12,3,0.51798362,1930.566229,2931.215584,-1,-1
1.71E+12,3,0.517962902,1930.643431,2931.214545,-1,-1
1.71E+12,3,0.517942215,1930.720529,2931.213561,-1,-1
1.71E+12,3,0.517921549,1930.797555,2931.21263,-1,-1
1.71E+12,3,0.517900897,1930.874541,2931.211751,-1,-1
1.71E+12,3,0.51788025,1930.951516,2931.210922,-1,-1
1.71E+12,3,0.517859601,1931.028506,2931.210143,-1,-1
1.71E+12,3,0.517838944,1931.105538,2931.209412,-1,-1
1.71E+12,3,0.517818271,1931.182634,2931.208728,-1,-1
1.71E+12,3,0.517797577,1931.259815,2931.208089,-1,-1
1.71E+12,3,0.517776858,1931.337101,2931.207494,-1,-1
1.71E+12,3,0.517756108,1931.414508,2931.206941,-1,-1
1.71E+12,3,0.517735324,1931.492049,2931.206429,-1,-1
1.71E+12,3,0.517714503,1931.569738,2931.205957,-1,-1
1.71E+12,3,0.517693641,1931.647584,2931.205524,-1,-1
1.71E+12,3,0.517672737,1931.725596,2931.205129,-1,-1
1.71E+12,3,0.517651789,1931.803778,2931.204769,-1,-1
1.71E+12,3,0.517630796,1931.882134,2931.204445,-1,-1
1.71E+12,3,0.517609758,1931.960666,2931.204154,-1,-1
1.71E+12,3,0.517588675,1932.039373,2931.203896,-1,-1
1.71E+12,3,0.517567547,1932.118252,2931.203669,-1,-1
1.71E+12,3,0.517546376,1932.197298,2931.203473,-1,-1
1.71E+12,3,0.517525164,1932.276504,2931.203307,-1,-1
1.71E+12,3,0.517503913,1932.355862,2931.203169,-1,-1
1.71E+12,3,0.517482626,1932.435361,2931.203058,-1,-1
1.71E+12,3,0.517461305,1932.51499,2931.202974,-1,-1
1.71E+12,3,0.517439955,1932.594735,2931.202917,-1,-1
1.71E+12,3,0.517418579,1932.674582,2931.202885,-1,-1
1.71E+12,3,0.517397182,1932.754513,2931.202879,-1,-1
1.71E+12,3,0.517375769,1932.834511,2931.202898,-1,-1
1.71E+12,3,0.517354344,1932.914555,2931.202941,-1,-1
1.71E+12,3,0.517332914,1932.994627,2931.203008,-1,-1
1.71E+12,3,0.517311483,1933.074703,2931.2031,-1,-1
1.71E+12,3,0.517290059,1933.154763,2931.203214,-1,-1
1.71E+12,3,0.517268647,1933.234782,2931.203351,-1,-1
1.71E+12,3,0.517247254,1933.314734,2931.203512,-1,-1
1.71E+12,3,0.517225887,1933.394594,2931.203696,-1,-1
1.71E+12,3,0.517204553,1933.474333,2931.203901,-1,-1
1.71E+12,3,0.517183261,1933.553924,2931.204127,-1,-1
1.71E+12,3,0.517162017,1933.633337,2931.204373,-1,-1
1.71E+12,3,0.517140829,1933.712544,2931.204639,-1,-1
1.71E+12,3,0.517119707,1933.791513,2931.204923,-1,-1
1.71E+12,3,0.517098657,1933.870214,2931.205226,-1,-1
1.71E+12,3,0.517077689,1933.948615,2931.205546,-1,-1
1.71E+12,3,0.517056811,1934.026684,2931.205883,-1,-1
1.71E+12,3,0.517036031,1934.104389,2931.206237,-1,-1
1.71E+12,3,0.517015359,1934.181695,2931.206608,-1,-1
1.71E+12,3,0.516994804,1934.258571,2931.206994,-1,-1
1.71E+12,3,0.516974373,1934.334982,2931.207394,-1,-1
1.71E+12,3,0.516954077,1934.410893,2931.207808,-1,-1
1.71E+12,3,0.516933926,1934.48627,2931.208234,-1,-1
1.71E+12,3,0.516913928,1934.561075,2931.208673,-1,-1