Shimmer_86BB_TimestampSync_Unix_CAL,Shimmer_86BB_GSR_Range_LPF_CAL,Shimmer_86BB_GSR_Skin_Conductance_LPF_CAL,Shimmer_86BB_GSR_Skin_Resistance_LPF_CAL,Shimmer_86BB_PPG_A13_LPF_CAL,Shimmer_86BB_PPG_IBI_LPF_CAL,Shimmer_86BB_PPGtoHR_LPF_CAL
1.71E+12,2,3.147985348,317.6634862,2931.135531,-1,-1
1.71E+12,2,3.147985348,317.6634862,2931.135531,-1,-1
1.71E+12,2,3.147985345,317.6634864,2931.135535,-1,-1
1.71E+12,2,3.147985333,317.6634876,2931.135549,-1,-1
1.71E+12,2,3.147985308,317.6634902,2931.13558,-1,-1
1.71E+12,2,3.147985265,317.6634945,2931.135631,-1,-1
1.71E+12,2,3.147985198,317.6635013,2931.135711,-1,-1
1.71E+12,2,3.147985101,317.6635111,2931.135828,-1,-1
1.71E+12,2,3.147984968,317.6635246,2931.135989,-1,-1
1.71E+12,2,3.147984791,317.6635424,2931.136201,-1,-1
1.71E+12,2,3.147984564,317.6635653,2931.136473,-1,-1
1.71E+12,2,3.147984281,317.6635939,2931.136812,-1,-1
1.71E+12,2,3.147983933,317.663629,2931.137223,-1,-1
1.71E+12,2,3.147983514,317.6636713,2931.137717,-1,-1
1.71E+12,2,3.147983018,317.6637215,2931.138302,-1,-1
1.71E+12,2,3.147982439,317.66378,2931.138986,-1,-1
1.71E+12,2,3.14798177,317.6638475,2931.139778,-1,-1
1.71E+12,2,3.147981004,317.6639249,2931.14069,-1,-1
1.71E+12,2,3.14798013,317.6640131,2931.141729,-1,-1
1.71E+12,2,3.147979143,317.6641129,2931.142904,-1,-1
1.71E+12,2,3.147978033,317.664225,2931.144228,-1,-1
1.71E+12,2,3.147976789,317.6643506,2931.145711,-1,-1
1.71E+12,2,3.1479754,317.6644909,2931.147363,-1,-1
1.71E+12,2,3.147973857,317.6646467,2931.149198,-1,-1
1.71E+12,2,3.147972151,317.6648191,2931.151227,-1,-1
1.71E+12,2,3.147970272,317.6650088,2931.153462,-1,-1
1.71E+12,2,3.14796821,317.6652171,2931.155912,-1,-1
1.71E+12,2,3.147965954,317.665445,2931.158594,-1,-1
1.71E+12,2,3.14796349,317.6656938,2931.161519,-1,-1
1.71E+12,2,3.147960805,317.6659651,2931.164697,-1,-1
1.71E+12,2,3.147957885,317.6662599,2931.168145,-1,-1
1.71E+12,2,3.147954721,317.6665795,2931.171879,-1,-1
1.71E+12,2,3.147951301,317.6669249,2931.175912,-1,-1
1.71E+12,2,3.147947615,317.6672972,2931.180259,-1,-1
1.71E+12,2,3.147943647,317.667698,2931.184937,-1,-1
1.71E+12,2,3.147939383,317.6681286,2931.18996,-1,-1
1.71E+12,2,3.147934813,317.6685903,2931.195342,-1,-1
1.71E+12,2,3.147929921,317.6690844,2931.201101,-1,-1
1.71E+12,2,3.147924694,317.6696123,2931.207254,-1,-1
1.71E+12,2,3.147919118,317.6701754,2931.213815,-1,-1
1.71E+12,2,3.147913179,317.6707753,2931.220802,-1,-1
1.71E+12,2,3.147906861,317.6714134,2931.228233,-1,-1
1.71E+12,2,3.147900153,317.672091,2931.23612,-1,-1
1.71E+12,2,3.147893041,317.6728093,2931.244476,-1,-1
1.71E+12,2,3.147885511,317.6735698,2931.253319,-1,-1
1.71E+12,2,3.14787755,317.6743739,2931.262663,-1,-1
1.71E+12,2,3.147869145,317.6752229,2931.27252,-1,-1
1.71E+12,2,3.147860281,317.6761182,2931.282907,-1,-1
1.71E+12,2,3.147850943,317.6770613,2931.293839,-1,-1
1.71E+12,2,3.147841121,317.6780534,2931.305327,-1,-1
1.71E+12,2,3.147830799,317.6790959,2931.317384,-1,-1
1.71E+12,2,3.147819963,317.6801903,2931.330025,-1,-1
1.71E+12,2,3.1478086,317.6813381,2931.34326,-1,-1
1.71E+12,2,3.147796695,317.6825406,2931.3571,-1,-1
1.71E+12,2,3.147784234,317.6837991,2931.371557,-1,-1
1.71E+12,2,3.147771209,317.6851147,2931.386642,-1,-1
1.71E+12,2,3.147757612,317.686488,2931.402363,-1,-1
1.71E+12,2,3.147743438,317.6879197,2931.418731,-1,-1
1.71E+12,2,3.147728682,317.6894102,2931.435754,-1,-1
1.71E+12,2,3.147713335,317.6909603,2931.453439,-1,-1
1.71E+12,2,3.147697388,317.6925709,2931.471792,-1,-1
1.71E+12,2,3.147680835,317.6942429,2931.490819,-1,-1
1.71E+12,2,3.147663667,317.6959769,2931.510524,-1,-1
1.71E+12,2,3.14764588,317.6977735,2931.530908,-1,-1
1.71E+12,2,3.14762747,317.6996331,2931.551975,-1,-1
1.71E+12,2,3.147608432,317.7015561,2931.573728,-1,-1
1.71E+12,2,3.147588763,317.7035427,2931.596165,-1,-1
1.71E+12,2,3.147568461,317.7055933,2931.619286,-1,-1
1.71E+12,2,3.147547523,317.7077082,2931.643091,-1,-1
1.71E+12,2,3.147525947,317.7098876,2931.667574,-1,-1
1.71E+12,2,3.147503731,317.7121315,2931.692729,-1,-1
1.71E+12,2,3.147480876,317.7144401,2931.718553,-1,-1
1.71E+12,2,3.147457382,317.7168132,2931.745037,-1,-1
1.71E+12,2,3.147433253,317.7192505,2931.772168,-1,-1
1.71E+12,2,3.147408493,317.7217514,2931.799934,-1,-1
1.71E+12,2,3.147383108,317.7243155,2931.828324,-1,-1
1.71E+12,2,3.147357103,317.7269423,2931.857326,-1,-1
1.71E+12,2,3.147330482,317.7296312,2931.886926,-1,-1
1.71E+12,2,3.147303254,317.7323816,2931.917111,-1,-1
1.71E+12,2,3.147275423,317.7351927,2931.947863,-1,-1
1.71E+12,2,3.147247,317.7380638,2931.979164,-1,-1
1.71E+12,2,3.147217991,317.740994,2932.010997,-1,-1
1.71E+12,2,3.147188406,317.7439825,2932.043342,-1,-1
1.71E+12,2,3.147158254,317.7470282,2932.076178,-1,-1
1.71E+12,2,3.147127546,317.75013,2932.109484,-1,-1
1.71E+12,2,3.147096293,317.753287,2932.14324,-1,-1
1.71E+12,2,3.14706451,317.7564975,2932.177419,-1,-1
1.71E+12,2,3.147032213,317.75976,2932.211999,-1,-1
1.71E+12,2,3.146999418,317.7630727,2932.246954,-1,-1
1.71E+12,2,3.146966141,317.7664342,2932.282258,-1,-1
1.71E+12,2,3.146932397,317.7698429,2932.317881,-1,-1
1.71E+12,2,3.146898203,317.773297,2932.3538,-1,-1
1.71E+12,2,3.146863578,317.7767947,2932.389987,-1,-1
1.71E+12,2,3.14682854,317.7803341,2932.426412,-1,-1
1.71E+12,2,3.146793108,317.7839134,2932.463047,-1,-1
1.71E+12,2,3.1467573,317.7875307,2932.499864,-1,-1
1.71E+12,2,3.146721137,317.7911838,2932.536829,-1,-1
1.71E+12,2,3.14668464,317.7948708,2932.57391,-1,-1
1.71E+12,2,3.146647829,317.7985895,2932.61108,-1,-1
1.71E+12,2,3.146610724,317.8023378,2932.648305,-1,-1
1.71E+12,2,3.146573349,317.8061136,2932.685553,-1,-1
1.71E+12,2,3.146535723,317.8099146,2932.722794,-1,-1
1.71E+12,2,3.146497868,317.8137388,2932.759998,-1,-1
1.71E+12,2,3.146459806,317.817584,2932.797133,-1,-1
1.71E+12,2,3.14642156,317.8214477,2932.834166,-1,-1
1.71E+12,2,3.146383153,317.8253278,2932.871068,-1,-1
1.71E+12,2,3.146344607,317.829222,2932.907807,-1,-1
1.71E+12,2,3.146305945,317.8331279,2932.944349,-1,-1
1.71E+12,2,3.146267186,317.8370436,2932.980667,-1,-1
1.71E+12,2,3.146228354,317.8409668,2933.016731,-1,-1
1.71E+12,2,3.146189469,317.8448953,2933.052511,-1,-1
1.71E+12,2,3.146150558,317.8488265,2933.087979,-1,-1
1.71E+12,2,3.146111642,317.8527582,2933.123108,-1,-1
1.71E+12,2,3.146072745,317.856688,2933.157871,-1,-1
1.71E+12,2,3.146033888,317.8606139,2933.192238,-1,-1
1.71E+12,2,3.145995089,317.864534,2933.226187,-1,-1
1.71E+12,2,3.145956366,317.8684463,2933.259693,-1,-1
1.71E+12,2,3.145917738,317.872349,2933.292732,-1,-1
1.71E+12,2,3.145879224,317.8762404,2933.325282,-1,-1
1.71E+12,2,3.145840843,317.8801184,2933.357323,-1,-1
1.71E+12,2,3.145802614,317.883981,2933.388833,-1,-1
1.71E+12,2,3.145764553,317.8878266,2933.419791,-1,-1
1.71E+12,2,3.14572668,317.8916533,2933.45018,-1,-1
1.71E+12,2,3.145689014,317.8954592,2933.479981,-1,-1
1.71E+12,2,3.145651569,317.8992428,2933.509178,-1,-1
1.71E+12,2,3.14561436,317.9030026,2933.537759,-1,-1
1.71E+12,2,3.145577403,317.9067369,2933.56571,-1,-1
1.71E+12,2,3.145540711,317.9104446,2933.593016,-1,-1
1.71E+12,2,3.145504296,317.9141242,2933.619667,-1,-1
1.71E+12,2,3.145468174,317.9177744,2933.645654,-1,-1
1.71E+12,2,3.145432357,317.9213936,2933.670967,-1,-1
1.71E+12,2,3.145396861,317.9249806,2933.695597,-1,-1
1.71E+12,2,3.145361696,317.9285341,2933.719541,-1,-1
1.71E+12,2,3.145326873,317.9320532,2933.742794,-1,-1
1.71E+12,2,3.1452924,317.9355368,2933.765351,-1,-1
1.71E+12,2,3.145258288,317.9389841,2933.787212,-1,-1
1.71E+12,2,3.145224546,317.9423941,2933.808376,-1,-1
1.71E+12,2,3.145191181,317.9457659,2933.828843,-1,-1
1.71E+12,2,3.145158201,317.949099,2933.848611,-1,-1
1.71E+12,2,3.145125611,317.9523926,2933.867685,-1,-1
1.71E+12,2,3.145093417,317.9556463,2933.886067,-1,-1
1.71E+12,2,3.145061622,317.9588597,2933.90376,-1,-1
1.71E+12,2,3.145030232,317.9620322,2933.920773,-1,-1
1.71E+12,2,3.14499925,317.9651635,2933.937111,-1,-1
1.71E+12,2,3.144968679,317.9682534,2933.952784,-1,-1
1.71E+12,2,3.14493852,317.9713016,2933.967798,-1,-1
1.71E+12,2,3.144908775,317.9743081,2933.982162,-1,-1
1.71E+12,2,3.144879448,317.9772724,2933.99588,-1,-1
1.71E+12,2,3.14485054,317.9801942,2934.00896,-1,-1
1.71E+12,2,3.144822053,317.9830737,2934.021415,-1,-1
1.71E+12,2,3.144793985,317.9859108,2934.033256,-1,-1
1.71E+12,2,3.144766336,317.9887057,2934.044495,-1,-1
1.71E+12,2,3.144739104,317.9914584,2934.055149,-1,-1
1.71E+12,2,3.144712286,317.9941693,2934.065232,-1,-1
1.71E+12,2,3.144685884,317.9968383,2934.074759,-1,-1
1.71E+12,2,3.144659894,317.9994656,2934.083744,-1,-1
1.71E+12,2,3.144634313,318.0020515,2934.092206,-1,-1
1.71E+12,2,3.144609139,318.0045965,2934.100159,-1,-1
1.71E+12,2,3.144584368,318.0071006,2934.107616,-1,-1
1.71E+12,2,3.144559996,318.0095645,2934.114599,-1,-1
1.71E+12,2,3.144536018,318.0119887,2934.121123,-1,-1
1.71E+12,2,3.144512429,318.0143736,2934.127203,-1,-1
1.71E+12,2,3.144489222,318.0167198,2934.132858,-1,-1
1.71E+12,2,3.144466394,318.0190278,2934.138106,-1,-1
1.71E+12,2,3.144443939,318.0212981,2934.142961,-1,-1
1.71E+12,2,3.144421853,318.0235312,2934.147438,-1,-1
1.71E+12,2,3.144400127,318.0257279,2934.151556,-1,-1
1.71E+12,2,3.144378759,318.0278884,2934.155329,-1,-1
1.71E+12,2,3.144357744,318.0300132,2934.158769,-1,-1
1.71E+12,2,3.144337078,318.0321029,2934.161896,-1,-1
1.71E+12,2,3.144316755,318.0341579,2934.164727,-1,-1
1.71E+12,2,3.144296769,318.0361788,2934.167274,-1,-1
1.71E+12,2,3.144277118,318.0381659,2934.169552,-1,-1
1.71E+12,2,3.144257797,318.0401196,2934.171578,-1,-1
1.71E+12,2,3.144238804,318.0420402,2934.173365,-1,-1
1.71E+12,2,3.144220135,318.0439281,2934.174926,-1,-1
1.71E+12,2,3.144201785,318.0457838,2934.176277,-1,-1
1.71E+12,2,3.14418375,318.0476076,2934.177431,-1,-1
1.71E+12,2,3.144166025,318.0494001,2934.178399,-1,-1
1.71E+12,2,3.144148602,318.0511621,2934.179192,-1,-1
1.71E+12,2,3.144131477,318.0528941,2934.179826,-1,-1
1.71E+12,2,3.144114643,318.0545965,2934.180308,-1,-1
1.71E+12,2,3.144098096,318.0562701,2934.180649,-1,-1
1.71E+12,2,3.144081832,318.057915,2934.180861,-1,-1
1.71E+12,2,3.144065847,318.0595316,2934.180953,-1,-1
1.71E+12,2,3.14405014,318.0611203,2934.180934,-1,-1
1.71E+12,2,3.144034708,318.0626811,2934.180817,-1,-1
1.71E+12,2,3.14401955,318.0642142,2934.180611,-1,-1
1.71E+12,2,3.144004661,318.0657202,2934.180324,-1,-1
1.71E+12,2,3.143990037,318.0671994,2934.179963,-1,-1
1.71E+12,2,3.143975671,318.0686524,2934.179537,-1,-1
1.71E+12,2,3.143961561,318.0700797,2934.179054,-1,-1
1.71E+12,2,3.143947705,318.0714812,2934.17852,-1,-1
1.71E+12,2,3.143934101,318.0728574,2934.177944,-1,-1
1.71E+12,2,3.143920745,318.0742084,2934.177335,-1,-1
1.71E+12,2,3.143907635,318.0755346,2934.176698,-1,-1
1.71E+12,2,3.143894768,318.0768361,2934.17604,-1,-1
1.71E+12,2,3.143882142,318.0781133,2934.17537,-1,-1
1.71E+12,2,3.143869753,318.0793666,2934.174692,-1,-1
1.71E+12,2,3.143857598,318.0805962,2934.174012,-1,-1
1.71E+12,2,3.143845678,318.081802,2934.173336,-1,-1
1.71E+12,2,3.143833993,318.0829842,2934.172673,-1,-1
1.71E+12,2,3.143822542,318.0841426,2934.172023,-1,-1
1.71E+12,2,3.143811327,318.0852771,2934.171388,-1,-1
1.71E+12,2,3.143800351,318.0863876,2934.170771,-1,-1
1.71E+12,2,3.143789616,318.0874736,2934.170172,-1,-1
1.71E+12,2,3.143779124,318.088535,2934.169587,-1,-1
1.71E+12,2,3.143768879,318.0895715,2934.169017,-1,-1
1.71E+12,2,3.143758885,318.0905827,2934.168461,-1,-1
1.71E+12,2,3.143749146,318.0915681,2934.167921,-1,-1
1.71E+12,2,3.143739666,318.0925271,2934.167394,-1,-1
1.71E+12,2,3.143730447,318.0934599,2934.166885,-1,-1
1.71E+12,2,3.14372149,318.0943662,2934.166395,-1,-1
1.71E+12,2,3.143712796,318.0952458,2934.16592,-1,-1
1.71E+12,2,3.143704366,318.0960988,2934.165465,-1,-1
1.71E+12,2,3.143696201,318.0969249,2934.165031,-1,-1
1.71E+12,2,3.143688304,318.0977239,2934.164616,-1,-1
1.71E+12,2,3.143680677,318.0984957,2934.164222,-1,-1
1.71E+12,2,3.143673324,318.0992397,2934.163851,-1,-1
1.71E+12,2,3.143666252,318.0999554,2934.163503,-1,-1
1.71E+12,2,3.143659467,318.1006419,2934.163176,-1,-1
1.71E+12,2,3.143652976,318.1012988,2934.16287,-1,-1
1.71E+12,2,3.143646783,318.1019254,2934.162585,-1,-1
1.71E+12,2,3.143640888,318.102522,2934.162316,-1,-1
1.71E+12,2,3.143635288,318.1030887,2934.162068,-1,-1
1.71E+12,2,3.143629983,318.1036257,2934.161842,-1,-1
1.71E+12,2,3.14362497,318.104133,2934.161638,-1,-1
1.71E+12,2,3.143620249,318.1046109,2934.161456,-1,-1
1.71E+12,2,3.143615819,318.1050592,2934.161301,-1,-1
1.71E+12,2,3.143611681,318.1054781,2934.161176,-1,-1
1.71E+12,2,3.143607832,318.1058677,2934.161079,-1,-1
1.71E+12,2,3.143604273,318.106228,2934.161013,-1,-1
1.71E+12,2,3.143601002,318.106559,2934.16098,-1,-1
1.71E+12,2,3.143598019,318.1068612,2934.160975,-1,-1
1.71E+12,2,3.143595322,318.1071342,2934.161002,-1,-1
1.71E+12,2,3.143592912,318.1073782,2934.16106,-1,-1
1.71E+12,2,3.143590786,318.1075935,2934.161151,-1,-1
1.71E+12,2,3.143588941,318.1077805,2934.161274,-1,-1
1.71E+12,2,3.143587373,318.1079393,2934.161431,-1,-1
1.71E+12,2,3.143586082,318.1080702,2934.161621,-1,-1
1.71E+12,2,3.143585067,318.1081731,2934.161842,-1,-1
1.71E+12,2,3.143584329,318.1082481,2934.162097,-1,-1
1.71E+12,2,3.143583866,318.1082951,2934.162386,-1,-1
1.71E+12,2,3.143583678,318.1083144,2934.16271,-1,-1
1.71E+12,2,3.143583758,318.1083065,2934.163068,-1,-1
1.71E+12,2,3.143584104,318.1082718,2934.163462,-1,-1
1.71E+12,2,3.143584709,318.1082107,2934.16389,-1,-1
1.71E+12,2,3.143585571,318.1081238,2934.164355,-1,-1
1.71E+12,2,3.143586684,318.1080114,2934.164856,-1,-1
1.71E+12,2,3.143588044,318.1078741,2934.165394,-1,-1
1.71E+12,2,3.143589651,318.1077118,2934.165968,-1,-1
1.71E+12,2,3.143591503,318.1075246,2934.166578,-1,-1
1.71E+12,2,3.1435936,318.1073128,2934.167223,-1,-1
1.71E+12,2,3.143595938,318.1070764,2934.167903,-1,-1
1.71E+12,2,3.143598516,318.1068158,2934.168616,-1,-1
1.71E+12,2,3.143601328,318.1065316,2934.169362,-1,-1
1.71E+12,2,3.143604366,318.1062245,2934.170141,-1,-1
1.71E+12,2,3.143607619,318.1058956,2934.170954,-1,-1
1.71E+12,2,3.143611077,318.1055461,2934.171798,-1,-1
1.71E+12,2,3.143614729,318.1051768,2934.172672,-1,-1
1.71E+12,2,3.143618572,318.1047882,2934.173574,-1,-1
1.71E+12,2,3.143622599,318.1043811,2934.174503,-1,-1
1.71E+12,2,3.143626801,318.1039562,2934.17546,-1,-1
1.71E+12,2,3.143631172,318.1035142,2934.176442,-1,-1
1.71E+12,2,3.143635707,318.1030557,2934.177451,-1,-1
1.71E+12,2,3.1436404,318.1025811,2934.178484,-1,-1
1.71E+12,2,3.143645246,318.1020911,2934.17954,-1,-1
1.71E+12,2,3.143650237,318.1015863,2934.180617,-1,-1
1.71E+12,2,3.143655366,318.1010676,2934.181715,-1,-1
1.71E+12,2,3.143660628,318.1005356,2934.182832,-1,-1
1.71E+12,2,3.143666016,318.0999906,2934.183967,-1,-1
1.71E+12,2,3.143671527,318.0994333,2934.18512,-1,-1
1.71E+12,2,3.143677155,318.0988641,2934.186291,-1,-1
1.71E+12,2,3.143682894,318.0982838,2934.187483,-1,-1
1.71E+12,2,3.143688734,318.0976931,2934.188699,-1,-1
1.71E+12,2,3.143694668,318.097093,2934.189939,-1,-1
1.71E+12,2,3.143700688,318.0964841,2934.191202,-1,-1
1.71E+12,2,3.14370679,318.095867,2934.192484,-1,-1
1.71E+12,2,3.143712966,318.0952423,2934.193785,-1,-1
1.71E+12,2,3.143719213,318.0946106,2934.195105,-1,-1
1.71E+12,2,3.143725526,318.0939721,2934.196446,-1,-1
1.71E+12,2,3.143731904,318.093327,2934.197806,-1,-1
1.71E+12,2,3.143738346,318.0926755,2934.199187,-1,-1
1.71E+12,2,3.143744844,318.0920182,2934.200589,-1,-1
1.71E+12,2,3.143751396,318.0913556,2934.202008,-1,-1
1.71E+12,2,3.143757998,318.0906878,2934.203443,-1,-1
1.71E+12,2,3.143764648,318.0900152,2934.204894,-1,-1
1.71E+12,2,3.143771342,318.0893382,2934.206359,-1,-1
1.71E+12,2,3.143778078,318.0886569,2934.207837,-1,-1
1.71E+12,2,3.143784851,318.0879718,2934.209332,-1,-1
1.71E+12,2,3.14379166,318.0872832,2934.210841,-1,-1
1.71E+12,2,3.143798502,318.0865911,2934.212363,-1,-1
1.71E+12,2,3.143805375,318.0858959,2934.213894,-1,-1
1.71E+12,2,3.143812279,318.0851976,2934.21543,-1,-1
1.71E+12,2,3.143819214,318.0844961,2934.216966,-1,-1
1.71E+12,2,3.143826181,318.0837914,2934.218503,-1,-1
1.71E+12,2,3.143833184,318.0830831,2934.220039,-1,-1
1.71E+12,2,3.143840222,318.0823711,2934.221575,-1,-1
1.71E+12,2,3.143847297,318.0816556,2934.223109,-1,-1
1.71E+12,2,3.143854405,318.0809365,2934.224643,-1,-1
1.71E+12,2,3.143861548,318.0802141,2934.226175,-1,-1
1.71E+12,2,3.143868722,318.0794883,2934.227704,-1,-1
1.71E+12,2,3.143875932,318.078759,2934.229228,-1,-1
1.71E+12,2,3.14388318,318.0780259,2934.230748,-1,-1
1.71E+12,2,3.143890466,318.0772888,2934.232262,-1,-1
1.71E+12,2,3.143897792,318.0765478,2934.23377,-1,-1
1.71E+12,2,3.143905155,318.075803,2934.235273,-1,-1
1.71E+12,2,3.14391256,318.0750539,2934.236773,-1,-1
1.71E+12,2,3.14392001,318.0743003,2934.238267,-1,-1
1.71E+12,2,3.143927509,318.0735417,2934.239755,-1,-1
1.71E+12,2,3.143935055,318.0727784,2934.241238,-1,-1
1.71E+12,2,3.143942647,318.0720104,2934.242712,-1,-1
1.71E+12,2,3.143950286,318.0712376,2934.244174,-1,-1
1.71E+12,2,3.143957976,318.0704596,2934.245625,-1,-1
1.71E+12,2,3.14396572,318.0696762,2934.247066,-1,-1
1.71E+12,2,3.143973522,318.068887,2934.248495,-1,-1
1.71E+12,2,3.143981387,318.0680914,2934.249913,-1,-1
1.71E+12,2,3.143989318,318.067289,2934.251318,-1,-1
1.71E+12,2,3.143997322,318.0664793,2934.252704,-1,-1
1.71E+12,2,3.144005398,318.0656623,2934.254073,-1,-1
1.71E+12,2,3.144013553,318.0648373,2934.255425,-1,-1
1.71E+12,2,3.144021792,318.0640038,2934.256757,-1,-1
1.71E+12,2,3.144030121,318.0631611,2934.258069,-1,-1
1.71E+12,2,3.144038545,318.062309,2934.259364,-1,-1
1.71E+12,2,3.144047066,318.0614469,2934.260638,-1,-1
1.71E+12,2,3.144055689,318.0605745,2934.261887,-1,-1
1.71E+12,2,3.144064416,318.0596916,2934.263111,-1,-1
1.71E+12,2,3.144073254,318.0587975,2934.264311,-1,-1
1.71E+12,2,3.144082208,318.0578917,2934.265483,-1,-1
1.71E+12,2,3.144091279,318.056974,2934.266627,-1,-1
1.71E+12,2,3.144100469,318.0560442,2934.267744,-1,-1
1.71E+12,2,3.144109778,318.0551025,2934.268834,-1,-1
1.71E+12,2,3.144119206,318.0541487,2934.269891,-1,-1
1.71E+12,2,3.144128757,318.0531825,2934.270917,-1,-1
1.71E+12,2,3.144138434,318.0522034,2934.271908,-1,-1
1.71E+12,2,3.144148241,318.0512113,2934.27286,-1,-1
1.71E+12,2,3.144158177,318.0502061,2934.273772,-1,-1
1.71E+12,2,3.144168246,318.0491874,2934.274645,-1,-1
1.71E+12,2,3.144178451,318.048155,2934.275479,-1,-1
1.71E+12,2,3.144188795,318.0471086,2934.27627,-1,-1
1.71E+12,2,3.144199278,318.046048,2934.277022,-1,-1
1.71E+12,2,3.144209904,318.0449731,2934.277731,-1,-1
1.71E+12,2,3.144220672,318.0438838,2934.278394,-1,-1
1.71E+12,2,3.144231584,318.0427799,2934.279012,-1,-1
1.71E+12,2,3.144242642,318.0416612,2934.279585,-1,-1
1.71E+12,2,3.144253848,318.0405276,2934.280112,-1,-1
1.71E+12,2,3.144265201,318.0393791,2934.280595,-1,-1
1.71E+12,2,3.1442767,318.0382158,2934.28104,-1,-1
1.71E+12,2,3.144288342,318.0370381,2934.281447,-1,-1
1.71E+12,2,3.144300129,318.0358458,2934.281812,-1,-1
1.71E+12,2,3.14431206,318.0346388,2934.282139,-1,-1
1.71E+12,2,3.144324138,318.033417,2934.282428,-1,-1
1.71E+12,2,3.144336363,318.0321804,2934.282674,-1,-1
1.71E+12,2,3.144348737,318.0309287,2934.28288,-1,-1
1.71E+12,2,3.144361257,318.0296622,2934.283046,-1,-1
1.71E+12,2,3.14437392,318.0283813,2934.28317,-1,-1
1.71E+12,2,3.144386726,318.027086,2934.283248,-1,-1
1.71E+12,2,3.144399674,318.0257763,2934.283285,-1,-1
1.71E+12,2,3.144412762,318.0244524,2934.28328,-1,-1
1.71E+12,2,3.144425991,318.0231143,2934.28323,-1,-1
1.71E+12,2,3.14443936,318.021762,2934.283136,-1,-1
1.71E+12,2,3.144452872,318.0203953,2934.283,-1,-1
1.71E+12,2,3.144466526,318.0190142,2934.282821,-1,-1
1.71E+12,2,3.144480323,318.0176188,2934.282598,-1,-1
1.71E+12,2,3.144494261,318.016209,2934.282337,-1,-1
1.71E+12,2,3.144508342,318.0147848,2934.282034,-1,-1
1.71E+12,2,3.144522568,318.0133459,2934.281684,-1,-1
1.71E+12,2,3.144536939,318.0118925,2934.281292,-1,-1
1.71E+12,2,3.144551452,318.0104246,2934.280862,-1,-1
1.71E+12,2,3.144566107,318.0089425,2934.280391,-1,-1
1.71E+12,2,3.144580902,318.0074461,2934.279882,-1,-1
1.71E+12,2,3.144595834,318.005936,2934.279339,-1,-1
1.71E+12,2,3.144610897,318.0044126,2934.278762,-1,-1
1.71E+12,2,3.14462609,318.0028761,2934.27815,-1,-1
1.71E+12,2,3.144641407,318.001327,2934.277509,-1,-1
1.71E+12,2,3.144656846,317.9997656,2934.276841,-1,-1
1.71E+12,2,3.14467241,317.9981917,2934.276141,-1,-1
1.71E+12,2,3.144688101,317.996605,2934.275416,-1,-1
1.71E+12,2,3.144703919,317.9950053,2934.274669,-1,-1
1.71E+12,2,3.144719867,317.9933926,2934.273902,-1,-1
1.71E+12,2,3.144735945,317.9917667,2934.273113,-1,-1
1.71E+12,2,3.144752154,317.9901277,2934.272308,-1,-1
1.71E+12,2,3.144768495,317.9884752,2934.271489,-1,-1
1.71E+12,2,3.144784967,317.9868095,2934.270654,-1,-1
1.71E+12,2,3.14480157,317.9851307,2934.269807,-1,-1
1.71E+12,2,3.144818302,317.9834388,2934.268949,-1,-1
1.71E+12,2,3.144835163,317.9817339,2934.26808,-1,-1
1.71E+12,2,3.144852151,317.9800162,2934.267201,-1,-1
1.71E+12,2,3.144869265,317.9782857,2934.266317,-1,-1
1.71E+12,2,3.144886507,317.9765424,2934.265427,-1,-1
1.71E+12,2,3.144903877,317.974786,2934.26453,-1,-1
1.71E+12,2,3.144921377,317.9730167,2934.263631,-1,-1
1.71E+12,2,3.144939006,317.9712342,2934.262731,-1,-1
1.71E+12,2,3.144956766,317.9694386,2934.261829,-1,-1
1.71E+12,2,3.144974657,317.9676297,2934.260927,-1,-1
1.71E+12,2,3.14499268,317.9658075,2934.26003,-1,-1
1.71E+12,2,3.145010837,317.9639718,2934.259139,-1,-1
1.71E+12,2,3.145029131,317.9621223,2934.258256,-1,-1
1.71E+12,2,3.145047566,317.9602585,2934.257386,-1,-1
1.71E+12,2,3.145066142,317.9583805,2934.256528,-1,-1
1.71E+12,2,3.145084858,317.9564883,2934.255681,-1,-1
1.71E+12,2,3.145103714,317.9545821,2934.254848,-1,-1
1.71E+12,2,3.145122711,317.9526616,2934.25403,-1,-1
1.71E+12,2,3.145141853,317.9507265,2934.253223,-1,-1
1.71E+12,2,3.145161138,317.948777,2934.252429,-1,-1
1.71E+12,2,3.145180564,317.9468132,2934.251652,-1,-1
1.71E+12,2,3.145200131,317.9448352,2934.250895,-1,-1
1.71E+12,2,3.145219841,317.9428427,2934.250154,-1,-1
1.71E+12,2,3.145239694,317.9408359,2934.249433,-1,-1
1.71E+12,2,3.14525969,317.9388146,2934.248731,-1,-1
1.71E+12,2,3.14527983,317.9367788,2934.248044,-1,-1
1.71E+12,2,3.145300112,317.9347287,2934.247373,-1,-1
1.71E+12,2,3.145320539,317.9326639,2934.246719,-1,-1
1.71E+12,2,3.145341111,317.9305845,2934.246082,-1,-1
1.71E+12,2,3.145361829,317.9284903,2934.245461,-1,-1
1.71E+12,2,3.145382693,317.9263815,2934.244858,-1,-1
1.71E+12,2,3.145403701,317.9242582,2934.244273,-1,-1
1.71E+12,2,3.145424857,317.9221199,2934.243703,-1,-1
1.71E+12,2,3.145446163,317.9199664,2934.243152,-1,-1
1.71E+12,2,3.145467615,317.9177982,2934.242619,-1,-1
1.71E+12,2,3.145489207,317.9156159,2934.242105,-1,-1
1.71E+12,2,3.145510936,317.9134199,2934.241614,-1,-1
1.71E+12,2,3.145532797,317.9112105,2934.241151,-1,-1
1.71E+12,2,3.145554793,317.9089874,2934.240715,-1,-1
1.71E+12,2,3.145576928,317.9067505,2934.240304,-1,-1
1.71E+12,2,3.145599203,317.9044993,2934.23992,-1,-1
1.71E+12,2,3.145621621,317.9022338,2934.239563,-1,-1
1.71E+12,2,3.145644183,317.8999537,2934.23923,-1,-1
1.71E+12,2,3.145666893,317.8976587,2934.238921,-1,-1
1.71E+12,2,3.145689757,317.8953482,2934.238639,-1,-1
1.71E+12,2,3.145712777,317.8930219,2934.238378,-1,-1
1.71E+12,2,3.145735954,317.8906799,2934.238136,-1,-1
1.71E+12,2,3.145759287,317.8883221,2934.237917,-1,-1
1.71E+12,2,3.145782779,317.8859483,2934.237721,-1,-1
1.71E+12,2,3.145806429,317.8835586,2934.237544,-1,-1
1.71E+12,2,3.145830236,317.881153,2934.237388,-1,-1
1.71E+12,2,3.145854198,317.8787317,2934.237256,-1,-1
1.71E+12,2,3.145878318,317.8762947,2934.237142,-1,-1
1.71E+12,2,3.145902595,317.8738417,2934.237043,-1,-1
1.71E+12,2,3.145927033,317.8713726,2934.236959,-1,-1
1.71E+12,2,3.145951632,317.8688872,2934.236884,-1,-1
1.71E+12,2,3.145976392,317.8663856,2934.236813,-1,-1
1.71E+12,2,3.146001312,317.8638679,2934.23675,-1,-1
1.71E+12,2,3.146026393,317.8613339,2934.236695,-1,-1
1.71E+12,2,3.14605164,317.8587834,2934.236646,-1,-1
1.71E+12,2,3.146077053,317.856216,2934.236604,-1,-1
1.71E+12,2,3.146102632,317.8536319,2934.236571,-1,-1
1.71E+12,2,3.146128375,317.8510312,2934.236542,-1,-1
1.71E+12,2,3.146154284,317.848414,2934.236515,-1,-1
1.71E+12,2,3.146180356,317.8457802,2934.236493,-1,-1
1.71E+12,2,3.146206586,317.8431305,2934.236473,-1,-1
1.71E+12,2,3.146232971,317.8404652,2934.236452,-1,-1
1.71E+12,2,3.146259506,317.8377849,2934.236435,-1,-1
1.71E+12,2,3.146286189,317.8350897,2934.236421,-1,-1
1.71E+12,2,3.146313017,317.8323798,2934.236407,-1,-1
1.71E+12,2,3.146339988,317.8296555,2934.236391,-1,-1
1.71E+12,2,3.146367101,317.826917,2934.236376,-1,-1
1.71E+12,2,3.146394356,317.8241642,2934.236354,-1,-1
1.71E+12,2,3.146421755,317.8213969,2934.236324,-1,-1
1.71E+12,2,3.1464493,317.8186149,2934.236289,-1,-1
1.71E+12,2,3.146476988,317.8158184,2934.236247,-1,-1
1.71E+12,2,3.146504817,317.8130078,2934.236195,-1,-1
1.71E+12,2,3.146532788,317.810183,2934.236135,-1,-1
1.71E+12,2,3.146560898,317.8073441,2934.236068,-1,-1
1.71E+12,2,3.146589146,317.8044914,2934.235988,-1,-1
1.71E+12,2,3.146617528,317.8016252,2934.235892,-1,-1
1.71E+12,2,3.146646042,317.7987457,2934.235781,-1,-1
1.71E+12,2,3.146674688,317.7958529,2934.235654,-1,-1
1.71E+12,2,3.146703467,317.7929468,2934.235503,-1,-1
1.71E+12,2,3.146732377,317.7900275,2934.235334,-1,-1
1.71E+12,2,3.146761412,317.7870956,2934.235145,-1,-1
1.71E+12,2,3.146790568,317.7841515,2934.234933,-1,-1
1.71E+12,2,3.146819843,317.7811956,2934.234696,-1,-1
1.71E+12,2,3.146849237,317.7782276,2934.234436,-1,-1
1.71E+12,2,3.146878747,317.775248,2934.234147,-1,-1
1.71E+12,2,3.146908373,317.7722567,2934.233824,-1,-1
1.71E+12,2,3.146938114,317.769254,2934.233471,-1,-1
1.71E+12,2,3.146967965,317.76624,2934.233087,-1,-1
1.71E+12,2,3.146997926,317.7632151,2934.232669,-1,-1
1.71E+12,2,3.147027993,317.7601795,2934.232218,-1,-1
1.71E+12,2,3.147058162,317.7571336,2934.231737,-1,-1
1.71E+12,2,3.147088432,317.7540777,2934.23122,-1,-1
1.71E+12,2,3.147118801,317.7510118,2934.230663,-1,-1
1.71E+12,2,3.147149267,317.7479362,2934.23007,-1,-1
1.71E+12,2,3.147179829,317.7448509,2934.22944,-1,-1
1.71E+12,2,3.147210486,317.7417561,2934.228769,-1,-1
1.71E+12,2,3.147241233,317.7386522,2934.22806,-1,-1
1.71E+12,2,3.147272066,317.7355398,2934.227314,-1,-1
1.71E+12,2,3.147302981,317.732419,2934.226528,-1,-1
1.71E+12,2,3.147333978,317.7292901,2934.225699,-1,-1
1.71E+12,2,3.147365053,317.7261534,2934.224831,-1,-1
1.71E+12,2,3.147396201,317.7230093,2934.223921,-1,-1
1.71E+12,2,3.147427418,317.7198583,2934.222968,-1,-1
1.71E+12,2,3.1474587,317.7167009,2934.221981,-1,-1
1.71E+12,2,3.147490044,317.7135372,2934.220963,-1,-1
1.71E+12,2,3.147521449,317.7103675,2934.219912,-1,-1
1.71E+12,2,3.147552908,317.7071923,2934.218832,-1,-1
1.71E+12,2,3.147584422,317.7040116,2934.217727,-1,-1
1.71E+12,2,3.147615992,317.7008254,2934.216592,-1,-1
1.71E+12,2,3.147647613,317.697634,2934.215425,-1,-1
1.71E+12,2,3.147679286,317.6944375,2934.214233,-1,-1
1.71E+12,2,3.14771101,317.691236,2934.213012,-1,-1
1.71E+12,2,3.147742782,317.6880295,2934.211762,-1,-1
1.71E+12,2,3.147774599,317.6848187,2934.210488,-1,-1
1.71E+12,2,3.147806457,317.6816036,2934.209192,-1,-1
1.71E+12,2,3.147838357,317.6783845,2934.207873,-1,-1
1.71E+12,2,3.147870302,317.6751609,2934.206531,-1,-1
1.71E+12,2,3.147902292,317.6719328,2934.205173,-1,-1
1.71E+12,2,3.147934323,317.6687006,2934.203796,-1,-1
1.71E+12,2,3.147966393,317.6654646,2934.202397,-1,-1
1.71E+12,2,3.147998504,317.6622244,2934.200982,-1,-1
1.71E+12,2,3.148030662,317.6589796,2934.199552,-1,-1
1.71E+12,2,3.14806287,317.6557298,2934.198105,-1,-1
1.71E+12,2,3.148095129,317.652475,2934.196645,-1,-1
1.71E+12,2,3.14812744,317.649215,2934.195175,-1,-1
1.71E+12,2,3.148159804,317.6459496,2934.193694,-1,-1
1.71E+12,2,3.148192219,317.6426791,2934.192203,-1,-1
1.71E+12,2,3.148224685,317.6394036,2934.190709,-1,-1
1.71E+12,2,3.1482572,317.6361232,2934.189214,-1,-1
1.71E+12,2,3.148289765,317.6328379,2934.187716,-1,-1
1.71E+12,2,3.14832238,317.6295476,2934.18622,-1,-1
1.71E+12,2,3.148355045,317.6262523,2934.184728,-1,-1
1.71E+12,2,3.148387757,317.6229523,2934.183239,-1,-1
1.71E+12,2,3.148420514,317.6196478,2934.181756,-1,-1
1.71E+12,2,3.148453317,317.6163388,2934.180283,-1,-1
1.71E+12,2,3.148486167,317.6130251,2934.178821,-1,-1
1.71E+12,2,3.148519066,317.6097065,2934.177367,-1,-1
1.71E+12,2,3.148552013,317.6063832,2934.175928,-1,-1
1.71E+12,2,3.148585009,317.603055,2934.174505,-1,-1
1.71E+12,2,3.148618055,317.5997218,2934.173098,-1,-1
1.71E+12,2,3.148651151,317.5963836,2934.171708,-1,-1
1.71E+12,2,3.148684297,317.5930405,2934.170341,-1,-1
1.71E+12,2,3.148717495,317.5896922,2934.168993,-1,-1
1.71E+12,2,3.148750746,317.5863386,2934.167665,-1,-1
1.71E+12,2,3.148784048,317.5829799,2934.166362,-1,-1
1.71E+12,2,3.148817403,317.579616,2934.165085,-1,-1
1.71E+12,2,3.148850813,317.5762466,2934.163835,-1,-1
1.71E+12,2,3.148884278,317.5728717,2934.162613,-1,-1
1.71E+12,2,3.148917801,317.5694911,2934.161423,-1,-1
1.71E+12,2,3.148951382,317.5661047,2934.160264,-1,-1
1.71E+12,2,3.148985022,317.5627123,2934.159132,-1,-1
1.71E+12,2,3.149018723,317.559314,2934.158033,-1,-1
1.71E+12,2,3.149052484,317.5559096,2934.156966,-1,-1
1.71E+12,2,3.149086304,317.5524993,2934.155928,-1,-1
1.71E+12,2,3.149120186,317.5490829,2934.154922,-1,-1
1.71E+12,2,3.14915413,317.5456603,2934.153948,-1,-1
1.71E+12,2,3.149188137,317.5422314,2934.153005,-1,-1
1.71E+12,2,3.149222206,317.5387963,2934.15209,-1,-1
1.71E+12,2,3.149256337,317.5353551,2934.151209,-1,-1
1.71E+12,2,3.149290529,317.5319079,2934.150361,-1,-1
1.71E+12,2,3.149324778,317.5284548,2934.149541,-1,-1
1.71E+12,2,3.149359084,317.5249962,2934.148756,-1,-1
1.71E+12,2,3.149393442,317.5215323,2934.148005,-1,-1
1.71E+12,2,3.149427852,317.5180633,2934.147285,-1,-1
1.71E+12,2,3.149462313,317.5145892,2934.146597,-1,-1
1.71E+12,2,3.149496828,317.5111097,2934.145944,-1,-1
1.71E+12,2,3.149531394,317.5076252,2934.145325,-1,-1
1.71E+12,2,3.149566009,317.5041359,2934.144735,-1,-1
1.71E+12,2,3.149600671,317.5006418,2934.144179,-1,-1
1.71E+12,2,3.149635377,317.4971433,2934.143656,-1,-1
1.71E+12,2,3.149670127,317.4936405,2934.143163,-1,-1
1.71E+12,2,3.149704919,317.4901336,2934.142701,-1,-1
1.71E+12,2,3.149739747,317.486623,2934.142271,-1,-1
1.71E+12,2,3.14977461,317.483109,2934.141872,-1,-1
1.71E+12,2,3.149809505,317.4795919,2934.141498,-1,-1
1.71E+12,2,3.149844428,317.476072,2934.141156,-1,-1
1.71E+12,2,3.149879375,317.4725498,2934.14085,-1,-1
1.71E+12,2,3.149914341,317.4690256,2934.140575,-1,-1
1.71E+12,2,3.149949324,317.4654999,2934.140335,-1,-1
1.71E+12,2,3.149984319,317.461973,2934.14013,-1,-1
1.71E+12,2,3.150019325,317.4584451,2934.139957,-1,-1
1.71E+12,2,3.150054338,317.4549165,2934.139812,-1,-1
1.71E+12,2,3.150089358,317.4513873,2934.139699,-1,-1
1.71E+12,2,3.150124386,317.4478574,2934.139615,-1,-1
1.71E+12,2,3.15015942,317.4443269,2934.139557,-1,-1
1.71E+12,2,3.150194458,317.4407961,2934.139528,-1,-1
1.71E+12,2,3.150229497,317.4372652,2934.139528,-1,-1
1.71E+12,2,3.15026453,317.4337351,2934.139553,-1,-1
1.71E+12,2,3.150299553,317.4302059,2934.139601,-1,-1
1.71E+12,2,3.150334566,317.426678,2934.139675,-1,-1
1.71E+12,2,3.150369564,317.4231515,2934.139774,-1,-1
1.71E+12,2,3.150404547,317.4196267,2934.139898,-1,-1
1.71E+12,2,3.150439514,317.4161035,2934.14005,-1,-1
1.71E+12,2,3.150474462,317.4125823,2934.140233,-1,-1
1.71E+12,2,3.150509388,317.4090634,2934.140444,-1,-1
1.71E+12,2,3.150544293,317.4055466,2934.140681,-1,-1
1.71E+12,2,3.150579176,317.4020322,2934.140947,-1,-1
1.71E+12,2,3.150614032,317.3985205,2934.141238,-1,-1
1.71E+12,2,3.150648858,317.395012,2934.141549,-1,-1
1.71E+12,2,3.150683652,317.3915068,2934.141887,-1,-1
1.71E+12,2,3.150718412,317.388005,2934.142256,-1,-1
1.71E+12,2,3.150753135,317.384507,2934.142653,-1,-1
1.71E+12,2,3.15078782,317.381013,2934.143079,-1,-1
1.71E+12,2,3.150822461,317.3775234,2934.143538,-1,-1
1.71E+12,2,3.150857055,317.3740386,2934.144024,-1,-1
1.71E+12,2,3.150891602,317.3705587,2934.144536,-1,-1
1.71E+12,2,3.150926099,317.3670839,2934.145076,-1,-1
1.71E+12,2,3.150960543,317.3636145,2934.14564,-1,-1
1.71E+12,2,3.15099493,317.3601509,2934.146227,-1,-1
1.71E+12,2,3.151029259,317.3566931,2934.146841,-1,-1
1.71E+12,2,3.15106353,317.3532414,2934.147487,-1,-1
1.71E+12,2,3.151097743,317.3497956,2934.148159,-1,-1
1.71E+12,2,3.151131897,317.3463557,2934.148858,-1,-1
1.71E+12,2,3.151165991,317.3429219,2934.149588,-1,-1
1.71E+12,2,3.151200026,317.3394942,2934.150345,-1,-1
1.71E+12,2,3.151234003,317.3360725,2934.151126,-1,-1
1.71E+12,2,3.151267922,317.3326566,2934.151935,-1,-1
1.71E+12,2,3.151301782,317.3292467,2934.152774,-1,-1
1.71E+12,2,3.151335582,317.325843,2934.15364,-1,-1
1.71E+12,2,3.15136932,317.3224456,2934.154533,-1,-1
1.71E+12,2,3.151402995,317.3190546,2934.155458,-1,-1
1.71E+12,2,3.15143661,317.3156697,2934.156408,-1,-1
1.71E+12,2,3.151470167,317.3122907,2934.157381,-1,-1
1.71E+12,2,3.151503666,317.3089177,2934.158379,-1,-1
1.71E+12,2,3.151537106,317.3055506,2934.159401,-1,-1
1.71E+12,2,3.15157049,317.3021892,2934.16044,-1,-1
1.71E+12,2,3.151603818,317.2988336,2934.161498,-1,-1
1.71E+12,2,3.151637086,317.2954841,2934.162579,-1,-1
1.71E+12,2,3.151670291,317.292141,2934.163674,-1,-1
1.71E+12,2,3.151703431,317.2888046,2934.164782,-1,-1
1.71E+12,2,3.151736504,317.285475,2934.165905,-1,-1
1.71E+12,2,3.151769511,317.282152,2934.167037,-1,-1
1.71E+12,2,3.151802455,317.2788355,2934.168174,-1,-1
1.71E+12,2,3.151835335,317.2755254,2934.169319,-1,-1
1.71E+12,2,3.151868152,317.2722219,2934.17047,-1,-1
1.71E+12,2,3.151900903,317.268925,2934.171624,-1,-1
1.71E+12,2,3.151933587,317.265635,2934.17278,-1,-1
1.71E+12,2,3.151966203,317.2623518,2934.17394,-1,-1
1.71E+12,2,3.15199875,317.2590756,2934.175098,-1,-1
1.71E+12,2,3.152031226,317.2558067,2934.176248,-1,-1
1.71E+12,2,3.15206363,317.2525451,2934.177394,-1,-1
1.71E+12,2,3.152095963,317.2492907,2934.178531,-1,-1
1.71E+12,2,3.152128222,317.2460438,2934.179656,-1,-1
1.71E+12,2,3.152160403,317.2428048,2934.18077,-1,-1
1.71E+12,2,3.15219251,317.2395734,2934.181871,-1,-1
1.71E+12,2,3.152224547,317.236349,2934.182954,-1,-1
1.71E+12,2,3.152256517,317.2331315,2934.184017,-1,-1
1.71E+12,2,3.152288422,317.2299206,2934.185061,-1,-1
1.71E+12,2,3.152320263,317.2267162,2934.186084,-1,-1
1.71E+12,2,3.152352036,317.2235187,2934.187085,-1,-1
1.71E+12,2,3.152383738,317.2203283,2934.188067,-1,-1
1.71E+12,2,3.15241537,317.2171452,2934.189029,-1,-1
1.71E+12,2,3.152446929,317.2139694,2934.189966,-1,-1
1.71E+12,2,3.152478413,317.2108013,2934.190879,-1,-1
1.71E+12,2,3.152509819,317.207641,2934.191767,-1,-1
1.71E+12,2,3.152541143,317.2044891,2934.192626,-1,-1
1.71E+12,2,3.152572387,317.2013453,2934.19345,-1,-1
1.71E+12,2,3.152603553,317.1982094,2934.194243,-1,-1
1.71E+12,2,3.152634641,317.1950815,2934.195001,-1,-1
1.71E+12,2,3.152665652,317.1919613,2934.19572,-1,-1
1.71E+12,2,3.152696589,317.1888486,2934.196402,-1,-1
1.71E+12,2,3.152727452,317.1857434,2934.197049,-1,-1
1.71E+12,2,3.152758242,317.1826457,2934.197654,-1,-1
1.71E+12,2,3.152788958,317.1795554,2934.198217,-1,-1
1.71E+12,2,3.152819602,317.1764725,2934.198741,-1,-1
1.71E+12,2,3.152850173,317.1733969,2934.199223,-1,-1
1.71E+12,2,3.152880673,317.1703286,2934.199659,-1,-1
1.71E+12,2,3.152911106,317.1672672,2934.200051,-1,-1
1.71E+12,2,3.152941476,317.164212,2934.200398,-1,-1
1.71E+12,2,3.152971787,317.1611629,2934.200696,-1,-1
1.71E+12,2,3.153002041,317.1581196,2934.200949,-1,-1
1.71E+12,2,3.153032237,317.1550821,2934.201158,-1,-1
1.71E+12,2,3.153062376,317.1520505,2934.201318,-1,-1
1.71E+12,2,3.153092457,317.1490248,2934.201427,-1,-1
1.71E+12,2,3.153122478,317.146005,2934.201492,-1,-1
1.71E+12,2,3.153152439,317.1429915,2934.201512,-1,-1
1.71E+12,2,3.153182338,317.1399842,2934.201486,-1,-1
1.71E+12,2,3.153212177,317.1369832,2934.201417,-1,-1
1.71E+12,2,3.153241952,317.1339885,2934.201309,-1,-1
1.71E+12,2,3.153271665,317.1310002,2934.201157,-1,-1
1.71E+12,2,3.153301318,317.1280178,2934.200962,-1,-1
1.71E+12,2,3.153330914,317.1250414,2934.200729,-1,-1
1.71E+12,2,3.153360454,317.1220706,2934.200456,-1,-1
1.71E+12,2,3.153389939,317.1191054,2934.200144,-1,-1
1.71E+12,2,3.153419371,317.1161456,2934.1998,-1,-1
1.71E+12,2,3.153448752,317.1131911,2934.199426,-1,-1
1.71E+12,2,3.153478082,317.1102416,2934.199021,-1,-1
1.71E+12,2,3.153507363,317.1072972,2934.198585,-1,-1
1.71E+12,2,3.153536596,317.1043576,2934.198123,-1,-1
1.71E+12,2,3.153565783,317.1014227,2934.197632,-1,-1
1.71E+12,2,3.153594928,317.0984922,2934.19711,-1,-1
1.71E+12,2,3.153624032,317.0955658,2934.196563,-1,-1
1.71E+12,2,3.153653097,317.0926434,2934.195994,-1,-1
1.71E+12,2,3.153682125,317.0897247,2934.195401,-1,-1
1.71E+12,2,3.153711119,317.0868095,2934.194787,-1,-1
1.71E+12,2,3.153740085,317.0838973,2934.194159,-1,-1
1.71E+12,2,3.153769024,317.0809877,2934.193516,-1,-1
1.71E+12,2,3.15379794,317.0780806,2934.192858,-1,-1
1.71E+12,2,3.153826833,317.0751758,2934.19219,-1,-1
1.71E+12,2,3.153855704,317.0722733,2934.191516,-1,-1
1.71E+12,2,3.153884559,317.0693724,2934.190834,-1,-1
1.71E+12,2,3.153913404,317.0664726,2934.190149,-1,-1
1.71E+12,2,3.153942244,317.0635734,2934.189467,-1,-1
1.71E+12,2,3.15397108,317.0606747,2934.188784,-1,-1
1.71E+12,2,3.153999911,317.0577765,2934.1881,-1,-1
1.71E+12,2,3.154028739,317.0548786,2934.18742,-1,-1
1.71E+12,2,3.154057565,317.0519811,2934.186745,-1,-1
1.71E+12,2,3.154086387,317.049084,2934.186072,-1,-1
1.71E+12,2,3.154115205,317.0461873,2934.185407,-1,-1
1.71E+12,2,3.154144023,317.0432907,2934.184753,-1,-1
1.71E+12,2,3.15417284,317.0403942,2934.184108,-1,-1
1.71E+12,2,3.154201658,317.0374977,2934.183472,-1,-1
1.71E+12,2,3.154230478,317.0346011,2934.18285,-1,-1
1.71E+12,2,3.1542593,317.0317043,2934.182238,-1,-1
1.71E+12,2,3.154288129,317.0288068,2934.181637,-1,-1
1.71E+12,2,3.154316967,317.0259086,2934.181049,-1,-1
1.71E+12,2,3.154345811,317.0230097,2934.180473,-1,-1
1.71E+12,2,3.154374662,317.0201102,2934.179908,-1,-1
1.71E+12,2,3.154403522,317.0172099,2934.179355,-1,-1
1.71E+12,2,3.154432395,317.0143083,2934.17882,-1,-1
1.71E+12,2,3.154461284,317.0114051,2934.178302,-1,-1
1.71E+12,2,3.154490185,317.0085008,2934.177804,-1,-1
1.71E+12,2,3.154519092,317.0055959,2934.177329,-1,-1
1.71E+12,2,3.154548005,317.0026906,2934.176877,-1,-1
1.71E+12,2,3.154576923,316.9997847,2934.176448,-1,-1
1.71E+12,2,3.154605844,316.9968786,2934.176039,-1,-1
1.71E+12,2,3.154634773,316.9939718,2934.175653,-1,-1
1.71E+12,2,3.154663715,316.9910636,2934.175287,-1,-1
1.71E+12,2,3.154692673,316.988154,2934.174943,-1,-1
1.71E+12,2,3.154721652,316.9852423,2934.174624,-1,-1
1.71E+12,2,3.154750653,316.9823284,2934.17433,-1,-1
1.71E+12,2,3.154779679,316.9794121,2934.174061,-1,-1
1.71E+12,2,3.154808731,316.9764932,2934.173819,-1,-1
1.71E+12,2,3.154837814,316.9735712,2934.173603,-1,-1
1.71E+12,2,3.154866928,316.9706462,2934.173413,-1,-1
1.71E+12,2,3.154896072,316.9677182,2934.173249,-1,-1
1.71E+12,2,3.154925246,316.9647873,2934.173115,-1,-1
1.71E+12,2,3.154954449,316.9618536,2934.17301,-1,-1
1.71E+12,2,3.154983681,316.9589169,2934.172932,-1,-1
1.71E+12,2,3.155012946,316.955977,2934.172883,-1,-1
1.71E+12,2,3.155042253,316.953033,2934.172861,-1,-1
1.71E+12,2,3.155071607,316.9500842,2934.172859,-1,-1
1.71E+12,2,3.15510101,316.9471306,2934.172878,-1,-1
1.71E+12,2,3.155130466,316.9441717,2934.172921,-1,-1
1.71E+12,2,3.155159975,316.9412076,2934.172986,-1,-1
1.71E+12,2,3.155189536,316.9382383,2934.173073,-1,-1
1.71E+12,2,3.155219148,316.9352639,2934.173183,-1,-1
1.71E+12,2,3.15524881,316.9322846,2934.173317,-1,-1
1.71E+12,2,3.155278521,316.9293004,2934.173472,-1,-1
1.71E+12,2,3.155308283,316.9263112,2934.173649,-1,-1
1.71E+12,2,3.155338094,316.923317,2934.173852,-1,-1
1.71E+12,2,3.155367956,316.9203179,2934.174078,-1,-1
1.71E+12,2,3.155397866,316.9173139,2934.174327,-1,-1
1.71E+12,2,3.155427828,316.9143048,2934.174604,-1,-1
1.71E+12,2,3.15545784,316.9112907,2934.174904,-1,-1
1.71E+12,2,3.155487902,316.9082717,2934.175226,-1,-1
1.71E+12,2,3.155518018,316.9052473,2934.17557,-1,-1
1.71E+12,2,3.155548188,316.9022175,2934.175939,-1,-1
1.71E+12,2,3.155578413,316.8991823,2934.176328,-1,-1
1.71E+12,2,3.155608693,316.8961416,2934.176738,-1,-1
1.71E+12,2,3.155639029,316.8930953,2934.177172,-1,-1
1.71E+12,2,3.155669424,316.8900432,2934.177627,-1,-1
1.71E+12,2,3.155699881,316.8869849,2934.1781,-1,-1
1.71E+12,2,3.155730402,316.8839202,2934.178594,-1,-1
1.71E+12,2,3.155760985,316.8808494,2934.179109,-1,-1
1.71E+12,2,3.155791629,316.8777725,2934.179641,-1,-1
1.71E+12,2,3.155822337,316.8746892,2934.180191,-1,-1
1.71E+12,2,3.155853109,316.8715996,2934.180761,-1,-1
1.71E+12,2,3.155883942,316.8685039,2934.181349,-1,-1
1.71E+12,2,3.155914837,316.8654019,2934.181954,-1,-1
1.71E+12,2,3.155945795,316.8622939,2934.18258,-1,-1
1.71E+12,2,3.155976811,316.8591799,2934.183227,-1,-1
1.71E+12,2,3.15600789,316.8560598,2934.183889,-1,-1
1.71E+12,2,3.156039029,316.8529336,2934.184569,-1,-1
1.71E+12,2,3.156070225,316.8498018,2934.185267,-1,-1
1.71E+12,2,3.156101475,316.8466646,2934.185981,-1,-1
1.71E+12,2,3.156132778,316.8435221,2934.186707,-1,-1
1.71E+12,2,3.156164133,316.8403745,2934.187448,-1,-1
1.71E+12,2,3.156195542,316.8372215,2934.188202,-1,-1
1.71E+12,2,3.156227001,316.8340635,2934.188964,-1,-1
1.71E+12,2,3.15625851,316.8309006,2934.189739,-1,-1
1.71E+12,2,3.156290068,316.8277329,2934.190528,-1,-1
1.71E+12,2,3.15632167,316.8245607,2934.191327,-1,-1
1.71E+12,2,3.15635331,316.8213848,2934.192137,-1,-1
1.71E+12,2,3.156384982,316.8182057,2934.192959,-1,-1
1.71E+12,2,3.15641668,316.8150241,2934.193791,-1,-1
1.71E+12,2,3.156448398,316.8118405,2934.194629,-1,-1
1.71E+12,2,3.156480132,316.8086553,2934.195478,-1,-1
1.71E+12,2,3.156511882,316.8054686,2934.196339,-1,-1
1.71E+12,2,3.156543642,316.8022809,2934.197208,-1,-1
1.71E+12,2,3.156575408,316.7990928,2934.198086,-1,-1
1.71E+12,2,3.156607168,316.7959052,2934.198973,-1,-1
1.71E+12,2,3.156638915,316.792719,2934.199864,-1,-1
1.71E+12,2,3.15667064,316.789535,2934.200755,-1,-1
1.71E+12,2,3.156702339,316.7863538,2934.20165,-1,-1
1.71E+12,2,3.156734002,316.7831762,2934.202551,-1,-1
1.71E+12,2,3.156765623,316.7800028,2934.203455,-1,-1
1.71E+12,2,3.156797198,316.7768341,2934.204364,-1,-1
1.71E+12,2,3.156828722,316.7736705,2934.205281,-1,-1
1.71E+12,2,3.156860192,316.7705125,2934.206198,-1,-1
1.71E+12,2,3.156891601,316.7673605,2934.207112,-1,-1
1.71E+12,2,3.156922944,316.7642153,2934.208026,-1,-1
1.71E+12,2,3.156954214,316.7610775,2934.208935,-1,-1
1.71E+12,2,3.156985405,316.7579477,2934.209837,-1,-1
1.71E+12,2,3.157016516,316.7548258,2934.210736,-1,-1
1.71E+12,2,3.157047541,316.7517126,2934.211633,-1,-1
1.71E+12,2,3.157078474,316.7486088,2934.212523,-1,-1
1.71E+12,2,3.157109308,316.745515,2934.213403,-1,-1
1.71E+12,2,3.157140039,316.7424314,2934.214276,-1,-1
1.71E+12,2,3.157170662,316.7393588,2934.215134,-1,-1
1.71E+12,2,3.15720117,316.7362978,2934.215975,-1,-1
1.71E+12,2,3.157231557,316.7332489,2934.216803,-1,-1
1.71E+12,2,3.15726182,316.7302126,2934.217618,-1,-1
1.71E+12,2,3.157291959,316.7271887,2934.218417,-1,-1
1.71E+12,2,3.157321977,316.724177,2934.219202,-1,-1
1.71E+12,2,3.157351872,316.7211778,2934.219971,-1,-1
1.71E+12,2,3.157381639,316.7181913,2934.220719,-1,-1
1.71E+12,2,3.157411276,316.7152181,2934.221442,-1,-1
1.71E+12,2,3.157440778,316.7122584,2934.222142,-1,-1
1.71E+12,2,3.157470143,316.7093125,2934.222818,-1,-1
1.71E+12,2,3.157499366,316.7063809,2934.223465,-1,-1
1.71E+12,2,3.157528443,316.703464,2934.224089,-1,-1
1.71E+12,2,3.157557372,316.700562,2934.224692,-1,-1
1.71E+12,2,3.157586152,316.697675,2934.22527,-1,-1
1.71E+12,2,3.157614784,316.6948029,2934.225826,-1,-1
1.71E+12,2,3.157643262,316.6919463,2934.226363,-1,-1
1.71E+12,2,3.157671587,316.6891051,2934.226877,-1,-1
1.71E+12,2,3.15769976,316.6862792,2934.227365,-1,-1
1.71E+12,2,3.157727783,316.6834684,2934.227831,-1,-1
1.71E+12,2,3.15775566,316.6806723,2934.228274,-1,-1
1.71E+12,2,3.157783392,316.6778908,2934.228691,-1,-1
1.71E+12,2,3.15781098,316.6751239,2934.229085,-1,-1
1.71E+12,2,3.157838425,316.6723713,2934.229457,-1,-1
1.71E+12,2,3.157865729,316.6696329,2934.229804,-1,-1
1.71E+12,2,3.157892896,316.6669084,2934.230129,-1,-1
1.71E+12,2,3.157919928,316.6641974,2934.230433,-1,-1
1.71E+12,2,3.157946829,316.6614996,2934.230711,-1,-1
1.71E+12,2,3.157973602,316.6588146,2934.230961,-1,-1
1.71E+12,2,3.158000253,316.6561421,2934.231188,-1,-1
1.71E+12,2,3.158026785,316.6534814,2934.231393,-1,-1
1.71E+12,2,3.158053202,316.6508324,2934.231573,-1,-1
1.71E+12,2,3.158079506,316.6481948,2934.231731,-1,-1
1.71E+12,2,3.158105704,316.6455678,2934.231871,-1,-1
1.71E+12,2,3.158131804,316.6429508,2934.231987,-1,-1
1.71E+12,2,3.15815781,316.6403432,2934.232078,-1,-1
1.71E+12,2,3.158183725,316.6377448,2934.232148,-1,-1
1.71E+12,2,3.158209551,316.6351554,2934.232197,-1,-1
1.71E+12,2,3.158235295,316.6325743,2934.232222,-1,-1
1.71E+12,2,3.158260962,316.630001,2934.232228,-1,-1
1.71E+12,2,3.158286558,316.6274348,2934.232218,-1,-1
1.71E+12,2,3.158312089,316.6248752,2934.232191,-1,-1
1.71E+12,2,3.15833756,316.6223217,2934.232144,-1,-1
1.71E+12,2,3.158362977,316.6197737,2934.232081,-1,-1
1.71E+12,2,3.158388343,316.6172307,2934.232001,-1,-1
1.71E+12,2,3.158413664,316.6146925,2934.231901,-1,-1
1.71E+12,2,3.158438942,316.6121585,2934.231785,-1,-1
1.71E+12,2,3.158464185,316.6096282,2934.231657,-1,-1
1.71E+12,2,3.158489395,316.6071012,2934.231513,-1,-1
1.71E+12,2,3.158514577,316.604577,2934.231355,-1,-1
1.71E+12,2,3.158539736,316.6020553,2934.231188,-1,-1
1.71E+12,2,3.158564877,316.5995354,2934.231009,-1,-1
1.71E+12,2,3.158590008,316.5970165,2934.230817,-1,-1
1.71E+12,2,3.158615138,316.5944978,2934.230621,-1,-1
1.71E+12,2,3.15864027,316.5919789,2934.23042,-1,-1
1.71E+12,2,3.15866541,316.5894593,2934.230213,-1,-1
1.71E+12,2,3.158690562,316.5869386,2934.230001,-1,-1
1.71E+12,2,3.15871573,316.5844162,2934.229789,-1,-1
1.71E+12,2,3.158740916,316.5818921,2934.229577,-1,-1
1.71E+12,2,3.158766118,316.5793665,2934.229367,-1,-1
1.71E+12,2,3.158791337,316.5768392,2934.229164,-1,-1
1.71E+12,2,3.158816575,316.5743101,2934.228968,-1,-1
1.71E+12,2,3.158841837,316.5717786,2934.228777,-1,-1
1.71E+12,2,3.158867127,316.5692443,2934.228594,-1,-1
1.71E+12,2,3.158892448,316.566707,2934.228423,-1,-1
1.71E+12,2,3.158917804,316.5641663,2934.228261,-1,-1
1.71E+12,2,3.158943201,316.5616214,2934.22811,-1,-1
1.71E+12,2,3.158968644,316.5590719,2934.227975,-1,-1
1.71E+12,2,3.158994136,316.5565177,2934.227858,-1,-1
1.71E+12,2,3.159019678,316.5539584,2934.227757,-1,-1
1.71E+12,2,3.159045274,316.5513937,2934.227676,-1,-1
1.71E+12,2,3.159070924,316.5488237,2934.227617,-1,-1
1.71E+12,2,3.159096629,316.5462483,2934.227579,-1,-1
1.71E+12,2,3.159122386,316.5436676,2934.227561,-1,-1
1.71E+12,2,3.159148197,316.5410817,2934.227568,-1,-1
1.71E+12,2,3.159174061,316.5384904,2934.2276,-1,-1
1.71E+12,2,3.159199976,316.5358939,2934.227653,-1,-1
1.71E+12,2,3.159225949,316.5332918,2934.227729,-1,-1
1.71E+12,2,3.159251986,316.5306833,2934.22783,-1,-1
1.71E+12,2,3.159278088,316.5280682,2934.227951,-1,-1
1.71E+12,2,3.159304254,316.5254469,2934.228094,-1,-1
1.71E+12,2,3.159330482,316.5228194,2934.228262,-1,-1
1.71E+12,2,3.159356768,316.5201861,2934.228451,-1,-1
1.71E+12,2,3.159383108,316.5175473,2934.228661,-1,-1
1.71E+12,2,3.159409505,316.5149029,2934.228895,-1,-1
1.71E+12,2,3.159435957,316.5122531,2934.229154,-1,-1
1.71E+12,2,3.159462456,316.5095986,2934.229433,-1,-1
1.71E+12,2,3.159488999,316.5069397,2934.229732,-1,-1
1.71E+12,2,3.159515584,316.5042766,2934.230053,-1,-1
1.71E+12,2,3.15954221,316.5016095,2934.230395,-1,-1
1.71E+12,2,3.159568876,316.4989383,2934.230758,-1,-1
1.71E+12,2,3.159595577,316.4962637,2934.231142,-1,-1
1.71E+12,2,3.159622307,316.4935863,2934.231548,-1,-1
1.71E+12,2,3.159649062,316.4909063,2934.231971,-1,-1
1.71E+12,2,3.159675839,316.4882243,2934.232411,-1,-1
1.71E+12,2,3.159702632,316.4855406,2934.232871,-1,-1
1.71E+12,2,3.159729437,316.4828558,2934.233347,-1,-1
1.71E+12,2,3.159756253,316.4801699,2934.233838,-1,-1
1.71E+12,2,3.159783076,316.4774833,2934.234343,-1,-1
1.71E+12,2,3.159809904,316.4747963,2934.234864,-1,-1
1.71E+12,2,3.159836733,316.4721092,2934.235394,-1,-1
1.71E+12,2,3.159863564,316.469422,2934.235934,-1,-1
1.71E+12,2,3.159890395,316.4667347,2934.236486,-1,-1
1.71E+12,2,3.159917228,316.4640473,2934.237048,-1,-1
1.71E+12,2,3.15994406,316.4613601,2934.23762,-1,-1
1.71E+12,2,3.159970885,316.4586735,2934.238202,-1,-1
1.71E+12,2,3.159997704,316.4559877,2934.238795,-1,-1
1.71E+12,2,3.160024514,316.4533028,2934.239395,-1,-1
1.71E+12,2,3.160051311,316.4506191,2934.239998,-1,-1
1.71E+12,2,3.160078092,316.4479372,2934.240608,-1,-1
1.71E+12,2,3.16010485,316.4452576,2934.241217,-1,-1
1.71E+12,2,3.160131579,316.4425808,2934.241825,-1,-1
1.71E+12,2,3.160158278,316.4399072,2934.24243,-1,-1
1.71E+12,2,3.160184944,316.4372369,2934.243034,-1,-1
1.71E+12,2,3.160211573,316.4345703,2934.243632,-1,-1
1.71E+12,2,3.160238162,316.4319078,2934.244222,-1,-1
1.71E+12,2,3.160264713,316.4292491,2934.244807,-1,-1
1.71E+12,2,3.160291221,316.4265948,2934.245383,-1,-1
1.71E+12,2,3.160317679,316.4239455,2934.245948,-1,-1
1.71E+12,2,3.16034408,316.4213019,2934.246503,-1,-1
1.71E+12,2,3.160370418,316.4186647,2934.247049,-1,-1
1.71E+12,2,3.160396688,316.4160343,2934.247578,-1,-1
1.71E+12,2,3.160422885,316.4134113,2934.24809,-1,-1
1.71E+12,2,3.160449003,316.4107962,2934.248585,-1,-1
1.71E+12,2,3.160475039,316.4081894,2934.249057,-1,-1
1.71E+12,2,3.16050099,316.4055911,2934.249507,-1,-1
1.71E+12,2,3.160526855,316.4030014,2934.249935,-1,-1
1.71E+12,2,3.160552634,316.4004205,2934.25034,-1,-1
1.71E+12,2,3.160578324,316.3978485,2934.250719,-1,-1
1.71E+12,2,3.160603921,316.3952857,2934.251072,-1,-1
1.71E+12,2,3.160629423,316.3927326,2934.251401,-1,-1
1.71E+12,2,3.160654822,316.3901898,2934.251703,-1,-1
1.71E+12,2,3.160680113,316.3876579,2934.251981,-1,-1
1.71E+12,2,3.160705291,316.3851372,2934.252242,-1,-1
1.71E+12,2,3.160730354,316.3826282,2934.252483,-1,-1
1.71E+12,2,3.160755297,316.3801311,2934.252704,-1,-1
1.71E+12,2,3.160780121,316.3776461,2934.252906,-1,-1
1.71E+12,2,3.160804823,316.3751733,2934.253087,-1,-1
1.71E+12,2,3.160829402,316.3727129,2934.253245,-1,-1
1.71E+12,2,3.160853857,316.3702649,2934.253379,-1,-1
1.71E+12,2,3.160878184,316.3678297,2934.253495,-1,-1
1.71E+12,2,3.160902381,316.3654075,2934.253589,-1,-1
1.71E+12,2,3.160926449,316.3629984,2934.253662,-1,-1
1.71E+12,2,3.160950383,316.3606027,2934.253719,-1,-1
1.71E+12,2,3.160974182,316.3582206,2934.253759,-1,-1
1.71E+12,2,3.160997848,316.3558517,2934.253779,-1,-1
1.71E+12,2,3.161021381,316.3534962,2934.253784,-1,-1
1.71E+12,2,3.161044778,316.3511543,2934.253776,-1,-1
1.71E+12,2,3.161068037,316.3488264,2934.253753,-1,-1
1.71E+12,2,3.161091155,316.3465125,2934.253717,-1,-1
1.71E+12,2,3.161114136,316.3442125,2934.253671,-1,-1
1.71E+12,2,3.161136981,316.341926,2934.253611,-1,-1
1.71E+12,2,3.161159692,316.339653,2934.253536,-1,-1
1.71E+12,2,3.161182265,316.3373938,2934.253445,-1,-1
1.71E+12,2,3.161204702,316.3351483,2934.25334,-1,-1
1.71E+12,2,3.161227007,316.3329161,2934.25322,-1,-1
1.71E+12,2,3.161249179,316.3306971,2934.253087,-1,-1
1.71E+12,2,3.161271217,316.3284916,2934.252946,-1,-1
1.71E+12,2,3.161293123,316.3262994,2934.252798,-1,-1
1.71E+12,2,3.161314895,316.3241206,2934.252644,-1,-1
1.71E+12,2,3.16133653,316.3219555,2934.252484,-1,-1
1.71E+12,2,3.161358028,316.3198043,2934.252319,-1,-1
1.71E+12,2,3.161379385,316.317667,2934.252149,-1,-1
1.71E+12,2,3.161400601,316.315544,2934.251975,-1,-1
1.71E+12,2,3.161421676,316.3134352,2934.251801,-1,-1
1.71E+12,2,3.161442612,316.3113403,2934.251628,-1,-1
1.71E+12,2,3.161463411,316.309259,2934.251456,-1,-1
1.71E+12,2,3.161484075,316.3071914,2934.251288,-1,-1
1.71E+12,2,3.161504604,316.3051372,2934.251125,-1,-1
1.71E+12,2,3.161524998,316.3030967,2934.250968,-1,-1
1.71E+12,2,3.16154526,316.3010693,2934.250817,-1,-1
1.71E+12,2,3.161565396,316.2990546,2934.250673,-1,-1
1.71E+12,2,3.16158541,316.2970522,2934.250536,-1,-1
1.71E+12,2,3.161605302,316.295062,2934.250406,-1,-1
1.71E+12,2,3.161625076,316.2930836,2934.250285,-1,-1
1.71E+12,2,3.161644736,316.2911166,2934.250172,-1,-1
1.71E+12,2,3.161664286,316.2891607,2934.250067,-1,-1
1.71E+12,2,3.161683728,316.2872156,2934.249969,-1,-1
1.71E+12,2,3.161703066,316.285281,2934.249877,-1,-1
1.71E+12,2,3.161722298,316.283357,2934.249791,-1,-1
1.71E+12,2,3.161741427,316.2814433,2934.249711,-1,-1
1.71E+12,2,3.161760458,316.2795395,2934.249637,-1,-1
1.71E+12,2,3.161779397,316.2776449,2934.249568,-1,-1
1.71E+12,2,3.161798248,316.275759,2934.249507,-1,-1
1.71E+12,2,3.161817018,316.2738814,2934.249452,-1,-1
1.71E+12,2,3.161835707,316.2720119,2934.249405,-1,-1
1.71E+12,2,3.16185432,316.2701501,2934.249363,-1,-1
1.71E+12,2,3.161872858,316.2682957,2934.249326,-1,-1
1.71E+12,2,3.161891325,316.2664484,2934.249292,-1,-1
1.71E+12,2,3.161909725,316.264608,2934.24926,-1,-1
1.71E+12,2,3.161928058,316.2627742,2934.249229,-1,-1
1.71E+12,2,3.161946328,316.2609467,2934.249201,-1,-1
1.71E+12,2,3.161964538,316.2591253,2934.249175,-1,-1
1.71E+12,2,3.161982694,316.2573093,2934.249152,-1,-1
1.71E+12,2,3.162000796,316.2554988,2934.249129,-1,-1
1.71E+12,2,3.162018845,316.2536936,2934.249104,-1,-1
1.71E+12,2,3.162036842,316.2518935,2934.249078,-1,-1
1.71E+12,2,3.162054788,316.2500986,2934.249049,-1,-1
1.71E+12,2,3.162072685,316.2483086,2934.249015,-1,-1
1.71E+12,2,3.162090535,316.2465234,2934.248977,-1,-1
1.71E+12,2,3.162108337,316.244743,2934.248935,-1,-1
1.71E+12,2,3.162126091,316.2429673,2934.248888,-1,-1
1.71E+12,2,3.162143797,316.2411966,2934.248833,-1,-1
1.71E+12,2,3.162161454,316.2394307,2934.24877,-1,-1
1.71E+12,2,3.162179056,316.2376704,2934.248695,-1,-1
1.71E+12,2,3.162196596,316.2359163,2934.248606,-1,-1
1.71E+12,2,3.162214073,316.2341685,2934.248506,-1,-1
1.71E+12,2,3.162231487,316.232427,2934.248399,-1,-1
1.71E+12,2,3.162248835,316.2306921,2934.248284,-1,-1
1.71E+12,2,3.16226612,316.2289636,2934.248162,-1,-1
1.71E+12,2,3.162283339,316.2272416,2934.248035,-1,-1
1.71E+12,2,3.162300493,316.2255263,2934.2479,-1,-1
1.71E+12,2,3.162317582,316.2238174,2934.247753,-1,-1
1.71E+12,2,3.162334602,316.2221154,2934.247596,-1,-1
1.71E+12,2,3.162351549,316.2204207,2934.24743,-1,-1
1.71E+12,2,3.162368421,316.2187336,2934.247251,-1,-1
1.71E+12,2,3.162385218,316.2170539,2934.247058,-1,-1
1.71E+12,2,3.162401941,316.2153818,2934.246855,-1,-1
1.71E+12,2,3.162418585,316.2137175,2934.24664,-1,-1
1.71E+12,2,3.162435147,316.2120614,2934.246407,-1,-1
1.71E+12,2,3.162451625,316.2104137,2934.246163,-1,-1
1.71E+12,2,3.162468018,316.2087745,2934.245907,-1,-1
1.71E+12,2,3.162484324,316.207144,2934.245637,-1,-1
1.71E+12,2,3.162500544,316.2055222,2934.245352,-1,-1
1.71E+12,2,3.162516678,316.203909,2934.245051,-1,-1
1.71E+12,2,3.162532724,316.2023046,2934.244729,-1,-1
1.71E+12,2,3.162548679,316.2007092,2934.244384,-1,-1
1.71E+12,2,3.162564543,316.1991231,2934.244023,-1,-1
1.71E+12,2,3.162580312,316.1975464,2934.243645,-1,-1
1.71E+12,2,3.162595981,316.1959797,2934.243247,-1,-1
1.71E+12,2,3.16261154,316.194424,2934.242833,-1,-1
1.71E+12,2,3.162626983,316.1928799,2934.242404,-1,-1
1.71E+12,2,3.162642306,316.1913479,2934.24196,-1,-1
1.71E+12,2,3.162657504,316.1898283,2934.2415,-1,-1
1.71E+12,2,3.162672575,316.1883214,2934.241031,-1,-1
1.71E+12,2,3.162687513,316.1868279,2934.240551,-1,-1
1.71E+12,2,3.162702312,316.1853483,2934.240057,-1,-1
1.71E+12,2,3.162716969,316.1838829,2934.239553,-1,-1
1.71E+12,2,3.162731477,316.1824323,2934.239038,-1,-1
1.71E+12,2,3.162745832,316.1809971,2934.238512,-1,-1
1.71E+12,2,3.162760027,316.1795779,2934.237974,-1,-1
1.71E+12,2,3.162774061,316.1781747,2934.237429,-1,-1
1.71E+12,2,3.162787937,316.1767874,2934.23688,-1,-1
1.71E+12,2,3.162801654,316.1754161,2934.236326,-1,-1
1.71E+12,2,3.16281521,316.1740607,2934.23577,-1,-1
1.71E+12,2,3.162828606,316.1727215,2934.235215,-1,-1
1.71E+12,2,3.162841842,316.1713982,2934.234658,-1,-1
1.71E+12,2,3.162854915,316.1700912,2934.234103,-1,-1
1.71E+12,2,3.162867825,316.1688005,2934.233551,-1,-1
1.71E+12,2,3.162880572,316.1675261,2934.233005,-1,-1
1.71E+12,2,3.162893153,316.1662683,2934.232461,-1,-1
1.71E+12,2,3.162905566,316.1650273,2934.231923,-1,-1
1.71E+12,2,3.162917807,316.1638036,2934.23139,-1,-1
1.71E+12,2,3.162929873,316.1625973,2934.230857,-1,-1
1.71E+12,2,3.162941763,316.1614086,2934.230328,-1,-1
1.71E+12,2,3.162953477,316.1602375,2934.229805,-1,-1
1.71E+12,2,3.162965014,316.1590841,2934.229289,-1,-1
1.71E+12,2,3.162976375,316.1579483,2934.228781,-1,-1
1.71E+12,2,3.162987556,316.1568306,2934.228284,-1,-1
1.71E+12,2,3.162998556,316.1557309,2934.227797,-1,-1
1.71E+12,2,3.163009376,316.1546492,2934.227319,-1,-1
1.71E+12,2,3.163020015,316.1535855,2934.226853,-1,-1
1.71E+12,2,3.163030476,316.1525397,2934.226401,-1,-1
1.71E+12,2,3.163040759,316.1515118,2934.225962,-1,-1
1.71E+12,2,3.163050867,316.1505013,2934.225537,-1,-1
1.71E+12,2,3.163060802,316.1495082,2934.225129,-1,-1
1.71E+12,2,3.163070565,316.1485321,2934.224738,-1,-1
1.71E+12,2,3.163080157,316.1475733,2934.224358,-1,-1
1.71E+12,2,3.163089576,316.1466317,2934.223992,-1,-1
1.71E+12,2,3.16309883,316.1457066,2934.223638,-1,-1
1.71E+12,2,3.163107923,316.1447976,2934.2233,-1,-1
1.71E+12,2,3.163116858,316.1439044,2934.222977,-1,-1
1.71E+12,2,3.163125638,316.1430267,2934.22267,-1,-1
1.71E+12,2,3.163134264,316.1421644,2934.222381,-1,-1
1.71E+12,2,3.163142741,316.1413171,2934.222105,-1,-1
1.71E+12,2,3.16315107,316.1404845,2934.221845,-1,-1
1.71E+12,2,3.163159255,316.1396663,2934.221599,-1,-1
1.71E+12,2,3.163167294,316.1388627,2934.22137,-1,-1
1.71E+12,2,3.163175182,316.1380743,2934.221161,-1,-1
1.71E+12,2,3.163182921,316.1373007,2934.220975,-1,-1
1.71E+12,2,3.163190517,316.1365414,2934.220811,-1,-1
1.71E+12,2,3.163197973,316.1357961,2934.220668,-1,-1
1.71E+12,2,3.163205293,316.1350645,2934.220549,-1,-1
1.71E+12,2,3.163212478,316.1343463,2934.220451,-1,-1
1.71E+12,2,3.163219529,316.1336415,2934.220373,-1,-1
1.71E+12,2,3.163226446,316.1329501,2934.220314,-1,-1
1.71E+12,2,3.163233233,316.1322718,2934.220277,-1,-1
1.71E+12,2,3.163239895,316.1316059,2934.220262,-1,-1
1.71E+12,2,3.163246436,316.1309521,2934.220267,-1,-1
1.71E+12,2,3.163252861,316.13031,2934.220291,-1,-1
1.71E+12,2,3.163259173,316.1296791,2934.220334,-1,-1
1.71E+12,2,3.163265378,316.1290589,2934.220393,-1,-1
1.71E+12,2,3.163271481,316.128449,2934.220469,-1,-1
1.71E+12,2,3.163277485,316.1278489,2934.220562,-1,-1
1.71E+12,2,3.163283396,316.1272582,2934.220675,-1,-1
1.71E+12,2,3.16328922,316.1266762,2934.220806,-1,-1
1.71E+12,2,3.163294967,316.1261018,2934.220954,-1,-1
1.71E+12,2,3.163300645,316.1255343,2934.221116,-1,-1
1.71E+12,2,3.163306262,316.124973,2934.22129,-1,-1
1.71E+12,2,3.163311824,316.1244172,2934.221476,-1,-1
1.71E+12,2,3.163317332,316.1238667,2934.221675,-1,-1
1.71E+12,2,3.163322789,316.1233214,2934.221888,-1,-1
1.71E+12,2,3.163328193,316.1227814,2934.222114,-1,-1
1.71E+12,2,3.163333545,316.1222466,2934.222353,-1,-1
1.71E+12,2,3.163338847,316.1217168,2934.222604,-1,-1
1.71E+12,2,3.163344103,316.1211916,2934.222862,-1,-1
1.71E+12,2,3.163349314,316.1206709,2934.223128,-1,-1
1.71E+12,2,3.163354483,316.1201544,2934.223403,-1,-1
1.71E+12,2,3.163359611,316.119642,2934.223688,-1,-1
1.71E+12,2,3.163364703,316.1191332,2934.223981,-1,-1
1.71E+12,2,3.163369763,316.1186276,2934.224285,-1,-1
1.71E+12,2,3.163374795,316.1181249,2934.224595,-1,-1
1.71E+12,2,3.1633798,316.1176248,2934.224906,-1,-1
1.71E+12,2,3.163384784,316.1171268,2934.225217,-1,-1
1.71E+12,2,3.163389753,316.1166304,2934.22553,-1,-1
1.71E+12,2,3.163394712,316.116135,2934.225842,-1,-1
1.71E+12,2,3.163399659,316.1156407,2934.226152,-1,-1
1.71E+12,2,3.163404599,316.1151472,2934.226462,-1,-1
1.71E+12,2,3.163409537,316.1146538,2934.226771,-1,-1
1.71E+12,2,3.163414477,316.1141603,2934.227071,-1,-1
1.71E+12,2,3.163419423,316.1136662,2934.227364,-1,-1
1.71E+12,2,3.163424378,316.1131711,2934.227649,-1,-1
1.71E+12,2,3.163429347,316.1126747,2934.227925,-1,-1
1.71E+12,2,3.163434332,316.1121767,2934.228191,-1,-1
1.71E+12,2,3.163439338,316.1116766,2934.228448,-1,-1
1.71E+12,2,3.163444369,316.1111741,2934.228694,-1,-1
1.71E+12,2,3.163449425,316.1106689,2934.228925,-1,-1
1.71E+12,2,3.163454507,316.1101613,2934.22914,-1,-1
1.71E+12,2,3.163459615,316.1096509,2934.22934,-1,-1
1.71E+12,2,3.163464751,316.1091379,2934.229522,-1,-1
1.71E+12,2,3.163469916,316.1086219,2934.229686,-1,-1
1.71E+12,2,3.163475112,316.1081028,2934.229834,-1,-1
1.71E+12,2,3.163480338,316.1075808,2934.229962,-1,-1
1.71E+12,2,3.163485596,316.1070555,2934.230065,-1,-1
1.71E+12,2,3.163490892,316.1065265,2934.230143,-1,-1
1.71E+12,2,3.163496225,316.1059937,2934.230198,-1,-1
1.71E+12,2,3.163501599,316.1054568,2934.230226,-1,-1
1.71E+12,2,3.163507015,316.1049158,2934.230226,-1,-1
1.71E+12,2,3.163512472,316.1043707,2934.2302,-1,-1
1.71E+12,2,3.163517971,316.1038213,2934.230145,-1,-1
1.71E+12,2,3.163523512,316.1032679,2934.230057,-1,-1
1.71E+12,2,3.163529093,316.1027103,2934.229937,-1,-1
1.71E+12,2,3.163534715,316.1021487,2934.229782,-1,-1
1.71E+12,2,3.163540379,316.1015829,2934.22959,-1,-1
1.71E+12,2,3.163546083,316.1010131,2934.229361,-1,-1
1.71E+12,2,3.163551823,316.1004396,2934.229097,-1,-1
1.71E+12,2,3.163557602,316.0998624,2934.228796,-1,-1
1.71E+12,2,3.163563416,316.0992816,2934.228455,-1,-1
1.71E+12,2,3.163569263,316.0986975,2934.228077,-1,-1
1.71E+12,2,3.163575142,316.0981102,2934.22766,-1,-1
1.71E+12,2,3.163581047,316.0975202,2934.227205,-1,-1
1.71E+12,2,3.163586974,316.0969282,2934.226715,-1,-1
1.71E+12,2,3.163592914,316.0963347,2934.226195,-1,-1
1.71E+12,2,3.163598867,316.0957401,2934.225646,-1,-1
1.71E+12,2,3.163604829,316.0951445,2934.225067,-1,-1
1.71E+12,2,3.163610794,316.0945485,2934.224461,-1,-1
1.71E+12,2,3.163616759,316.0939526,2934.223827,-1,-1
1.71E+12,2,3.163622721,316.093357,2934.223162,-1,-1
1.71E+12,2,3.163628676,316.0927622,2934.222467,-1,-1
1.71E+12,2,3.163634621,316.0921682,2934.221744,-1,-1
1.71E+12,2,3.163640558,316.091575,2934.220996,-1,-1
1.71E+12,2,3.163646486,316.0909828,2934.22022,-1,-1
1.71E+12,2,3.163652405,316.0903915,2934.21942,-1,-1
1.71E+12,2,3.163658315,316.0898011,2934.218595,-1,-1
1.71E+12,2,3.163664213,316.0892119,2934.217744,-1,-1
1.71E+12,2,3.163670091,316.0886246,2934.216869,-1,-1
1.71E+12,2,3.163675946,316.0880397,2934.215974,-1,-1
1.71E+12,2,3.163681771,316.0874577,2934.215062,-1,-1
1.71E+12,2,3.163687562,316.0868792,2934.214133,-1,-1
1.71E+12,2,3.163693316,316.0863043,2934.213191,-1,-1
1.71E+12,2,3.163699036,316.0857329,2934.212233,-1,-1
1.71E+12,2,3.163704714,316.0851655,2934.211258,-1,-1
1.71E+12,2,3.163710345,316.0846029,2934.210266,-1,-1
1.71E+12,2,3.163715924,316.0840456,2934.20926,-1,-1
1.71E+12,2,3.163721446,316.0834939,2934.208238,-1,-1
1.71E+12,2,3.163726905,316.0829484,2934.207205,-1,-1
1.71E+12,2,3.163732298,316.0824097,2934.206166,-1,-1
1.71E+12,2,3.163737615,316.0818784,2934.205124,-1,-1
1.71E+12,2,3.163742852,316.0813552,2934.204081,-1,-1
1.71E+12,2,3.163748005,316.0808403,2934.20304,-1,-1
1.71E+12,2,3.163753069,316.0803343,2934.202003,-1,-1
1.71E+12,2,3.163758038,316.0798379,2934.200968,-1,-1
1.71E+12,2,3.163762904,316.0793518,2934.199938,-1,-1
1.71E+12,2,3.163767663,316.0788763,2934.198914,-1,-1
1.71E+12,2,3.163772309,316.078412,2934.1979,-1,-1
1.71E+12,2,3.163776841,316.0779592,2934.196895,-1,-1
1.71E+12,2,3.163781253,316.0775184,2934.195902,-1,-1
1.71E+12,2,3.16378554,316.0770901,2934.194925,-1,-1
1.71E+12,2,3.163789698,316.0766747,2934.193967,-1,-1
1.71E+12,2,3.163793726,316.0762721,2934.193031,-1,-1
1.71E+12,2,3.163797623,316.0758828,2934.19212,-1,-1
1.71E+12,2,3.163801385,316.0755069,2934.191235,-1,-1
1.71E+12,2,3.16380501,316.0751447,2934.190376,-1,-1
1.71E+12,2,3.163808494,316.0747965,2934.189544,-1,-1
1.71E+12,2,3.163811835,316.0744627,2934.188743,-1,-1
1.71E+12,2,3.163815033,316.0741432,2934.187974,-1,-1
1.71E+12,2,3.163818084,316.0738383,2934.187239,-1,-1
1.71E+12,2,3.163820987,316.0735482,2934.18654,-1,-1
1.71E+12,2,3.163823741,316.073273,2934.185878,-1,-1
1.71E+12,2,3.163826345,316.0730129,2934.185255,-1,-1
1.71E+12,2,3.163828797,316.0727677,2934.184671,-1,-1
1.71E+12,2,3.163831101,316.0725376,2934.18413,-1,-1
1.71E+12,2,3.163833255,316.0723223,2934.183632,-1,-1
1.71E+12,2,3.163835262,316.0721218,2934.18318,-1,-1
1.71E+12,2,3.163837121,316.0719359,2934.182774,-1,-1
1.71E+12,2,3.163838833,316.0717648,2934.182416,-1,-1
1.71E+12,2,3.163840399,316.0716084,2934.182106,-1,-1
1.71E+12,2,3.163841817,316.0714666,2934.181839,-1,-1
1.71E+12,2,3.163843091,316.0713393,2934.181615,-1,-1
1.71E+12,2,3.16384422,316.0712265,2934.181435,-1,-1
1.71E+12,2,3.163845204,316.0711281,2934.181296,-1,-1
1.71E+12,2,3.163846047,316.0710438,2934.181201,-1,-1
1.71E+12,2,3.16384675,316.0709736,2934.181154,-1,-1
1.71E+12,2,3.163847313,316.0709173,2934.181153,-1,-1
1.71E+12,2,3.163847739,316.0708746,2934.181197,-1,-1
1.71E+12,2,3.163848033,316.0708452,2934.181283,-1,-1
1.71E+12,2,3.163848194,316.0708291,2934.181413,-1,-1
1.71E+12,2,3.163848223,316.0708261,2934.181584,-1,-1
1.71E+12,2,3.163848123,316.0708361,2934.181798,-1,-1
1.71E+12,2,3.163847898,316.0708586,2934.182057,-1,-1
1.71E+12,2,3.163847552,316.070893,2934.18236,-1,-1
1.71E+12,2,3.163847092,316.070939,2934.182704,-1,-1
1.71E+12,2,3.163846519,316.0709962,2934.18309,-1,-1
1.71E+12,2,3.163845832,316.0710647,2934.183517,-1,-1
1.71E+12,2,3.163845031,316.0711447,2934.183986,-1,-1
1.71E+12,2,3.163844118,316.0712359,2934.184498,-1,-1
1.71E+12,2,3.163843094,316.0713382,2934.185052,-1,-1
1.71E+12,2,3.163841963,316.0714511,2934.185648,-1,-1
1.71E+12,2,3.163840729,316.0715744,2934.186285,-1,-1
1.71E+12,2,3.163839397,316.0717074,2934.186964,-1,-1
1.71E+12,2,3.163837975,316.0718495,2934.187682,-1,-1
1.71E+12,2,3.163836468,316.072,2934.188436,-1,-1
1.71E+12,2,3.163834882,316.0721584,2934.189221,-1,-1
1.71E+12,2,3.163833219,316.0723245,2934.190037,-1,-1
1.71E+12,2,3.163831482,316.072498,2934.190884,-1,-1
1.71E+12,2,3.163829676,316.0726784,2934.191761,-1,-1
1.71E+12,2,3.163827808,316.072865,2934.192672,-1,-1
1.71E+12,2,3.163825885,316.0730571,2934.193615,-1,-1
1.71E+12,2,3.163823913,316.0732541,2934.194588,-1,-1
1.71E+12,2,3.163821896,316.0734556,2934.195589,-1,-1
1.71E+12,2,3.163819839,316.0736611,2934.196617,-1,-1
1.71E+12,2,3.163817743,316.0738704,2934.19767,-1,-1
1.71E+12,2,3.163815615,316.0740829,2934.198745,-1,-1
1.71E+12,2,3.16381346,316.0742982,2934.199841,-1,-1
1.71E+12,2,3.163811284,316.0745156,2934.200951,-1,-1
1.71E+12,2,3.163809089,316.0747349,2934.202074,-1,-1
1.71E+12,2,3.163806877,316.0749558,2934.203208,-1,-1
1.71E+12,2,3.163804651,316.0751782,2934.204352,-1,-1
1.71E+12,2,3.16380241,316.075402,2934.205503,-1,-1
1.71E+12,2,3.163800158,316.075627,2934.20666,-1,-1
1.71E+12,2,3.163797897,316.0758528,2934.207825,-1,-1
1.71E+12,2,3.16379563,316.0760792,2934.208995,-1,-1
1.71E+12,2,3.163793363,316.0763058,2934.21017,-1,-1
1.71E+12,2,3.163791096,316.0765322,2934.211349,-1,-1
1.71E+12,2,3.16378883,316.0767585,2934.212531,-1,-1
1.71E+12,2,3.163786563,316.076985,2934.213713,-1,-1
1.71E+12,2,3.163784295,316.0772115,2934.214894,-1,-1
1.71E+12,2,3.163782028,316.077438,2934.216073,-1,-1
1.71E+12,2,3.163779762,316.0776644,2934.217248,-1,-1
1.71E+12,2,3.1637775,316.0778903,2934.218416,-1,-1
1.71E+12,2,3.163775241,316.0781159,2934.219575,-1,-1
1.71E+12,2,3.163772986,316.0783412,2934.220721,-1,-1
1.71E+12,2,3.163770734,316.0785662,2934.221853,-1,-1
1.71E+12,2,3.163768485,316.0787908,2934.222969,-1,-1
1.71E+12,2,3.163766236,316.0790154,2934.224067,-1,-1
1.71E+12,2,3.163763986,316.0792403,2934.225144,-1,-1
1.71E+12,2,3.163761731,316.0794655,2934.226201,-1,-1
1.71E+12,2,3.163759473,316.079691,2934.227234,-1,-1
1.71E+12,2,3.163757214,316.0799167,2934.228244,-1,-1
1.71E+12,2,3.163754948,316.0801431,2934.22923,-1,-1
1.71E+12,2,3.163752673,316.0803704,2934.230188,-1,-1
1.71E+12,2,3.163750389,316.0805986,2934.231117,-1,-1
1.71E+12,2,3.163748095,316.0808277,2934.232014,-1,-1
1.71E+12,2,3.163745792,316.0810577,2934.232879,-1,-1
1.71E+12,2,3.163743477,316.0812891,2934.23371,-1,-1
1.71E+12,2,3.163741146,316.0815219,2934.234507,-1,-1
1.71E+12,2,3.163738797,316.0817566,2934.23527,-1,-1
1.71E+12,2,3.163736427,316.0819934,2934.235998,-1,-1
1.71E+12,2,3.163734032,316.0822326,2934.236687,-1,-1
1.71E+12,2,3.163731609,316.0824747,2934.237337,-1,-1
1.71E+12,2,3.163729151,316.0827203,2934.237946,-1,-1
1.71E+12,2,3.163726654,316.0829697,2934.238515,-1,-1
1.71E+12,2,3.163724115,316.0832234,2934.239043,-1,-1
1.71E+12,2,3.163721532,316.0834815,2934.23953,-1,-1
1.71E+12,2,3.163718904,316.0837441,2934.239976,-1,-1
1.71E+12,2,3.163716229,316.0840114,2934.240381,-1,-1
1.71E+12,2,3.163713502,316.0842838,2934.240745,-1,-1
1.71E+12,2,3.16371072,316.0845618,2934.241069,-1,-1
1.71E+12,2,3.163707876,316.084846,2934.241349,-1,-1
1.71E+12,2,3.163704965,316.0851369,2934.241586,-1,-1
1.71E+12,2,3.163701983,316.0854349,2934.24178,-1,-1
1.71E+12,2,3.163698923,316.0857406,2934.241932,-1,-1
1.71E+12,2,3.163695785,316.0860542,2934.242041,-1,-1
1.71E+12,2,3.163692565,316.086376,2934.242109,-1,-1
1.71E+12,2,3.163689259,316.0867063,2934.242136,-1,-1
1.71E+12,2,3.163685862,316.0870458,2934.242121,-1,-1
1.71E+12,2,3.163682365,316.0873953,2934.242065,-1,-1
1.71E+12,2,3.163678758,316.0877557,2934.241971,-1,-1
1.71E+12,2,3.163675037,316.0881276,2934.241839,-1,-1
1.71E+12,2,3.163671195,316.0885115,2934.24167,-1,-1
1.71E+12,2,3.163667233,316.0889075,2934.241466,-1,-1
1.71E+12,2,3.163663148,316.0893158,2934.241226,-1,-1
1.71E+12,2,3.163658939,316.0897364,2934.240951,-1,-1
1.71E+12,2,3.163654606,316.0901694,2934.240643,-1,-1
1.71E+12,2,3.163650148,316.090615,2934.240303,-1,-1
1.71E+12,2,3.163645561,316.0910733,2934.239932,-1,-1
1.71E+12,2,3.163640847,316.0915445,2934.239531,-1,-1
1.71E+12,2,3.163636004,316.0920284,2934.239102,-1,-1
1.71E+12,2,3.163631032,316.0925254,2934.238647,-1,-1
1.71E+12,2,3.163625929,316.0930354,2934.238166,-1,-1
1.71E+12,2,3.163620692,316.0935588,2934.237664,-1,-1
1.71E+12,2,3.16361532,316.0940957,2934.237142,-1,-1
1.71E+12,2,3.16360981,316.0946463,2934.236604,-1,-1
1.71E+12,2,3.163604163,316.0952107,2934.236051,-1,-1
1.71E+12,2,3.163598377,316.0957889,2934.235487,-1,-1
1.71E+12,2,3.163592457,316.0963805,2934.234911,-1,-1
1.71E+12,2,3.16358641,316.0969849,2934.234324,-1,-1
1.71E+12,2,3.163580236,316.097602,2934.233723,-1,-1
1.71E+12,2,3.163573932,316.098232,2934.233108,-1,-1
1.71E+12,2,3.1635675,316.0988748,2934.232483,-1,-1
1.71E+12,2,3.163560941,316.0995303,2934.231848,-1,-1
1.71E+12,2,3.163554253,316.1001987,2934.231204,-1,-1
1.71E+12,2,3.163547436,316.10088,2934.230551,-1,-1
1.71E+12,2,3.163540488,316.1015743,2934.229893,-1,-1
1.71E+12,2,3.163533408,316.102282,2934.229231,-1,-1
1.71E+12,2,3.163526193,316.1030031,2934.228567,-1,-1
1.71E+12,2,3.163518845,316.1037374,2934.227905,-1,-1
1.71E+12,2,3.163511366,316.1044848,2934.227244,-1,-1
1.71E+12,2,3.163503759,316.1052451,2934.226585,-1,-1
1.71E+12,2,3.163496026,316.1060179,2934.225928,-1,-1
1.71E+12,2,3.16348817,316.106803,2934.225275,-1,-1
1.71E+12,2,3.163480192,316.1076004,2934.224625,-1,-1
1.71E+12,2,3.163472096,316.1084094,2934.22398,-1,-1
1.71E+12,2,3.163463885,316.10923,2934.223346,-1,-1
1.71E+12,2,3.163455559,316.1100621,2934.22272,-1,-1
1.71E+12,2,3.16344712,316.1109055,2934.222101,-1,-1
1.71E+12,2,3.163438571,316.1117599,2934.221491,-1,-1
1.71E+12,2,3.163429916,316.1126249,2934.220892,-1,-1
1.71E+12,2,3.16342116,316.1134999,2934.2203,-1,-1
1.71E+12,2,3.163412307,316.1143848,2934.219719,-1,-1
1.71E+12,2,3.163403357,316.1152791,2934.219153,-1,-1
1.71E+12,2,3.163394316,316.1161827,2934.218597,-1,-1
1.71E+12,2,3.163385188,316.1170949,2934.218054,-1,-1
1.71E+12,2,3.163375977,316.1180155,2934.217527,-1,-1
1.71E+12,2,3.163366684,316.1189442,2934.217014,-1,-1
1.71E+12,2,3.163357313,316.1198808,2934.216514,-1,-1
1.71E+12,2,3.163347865,316.120825,2934.216024,-1,-1
1.71E+12,2,3.163338344,316.1217765,2934.215547,-1,-1
1.71E+12,2,3.163328757,316.1227346,2934.215078,-1,-1
1.71E+12,2,3.163319112,316.1236985,2934.214616,-1,-1
1.71E+12,2,3.163309413,316.1246678,2934.214163,-1,-1
1.71E+12,2,3.163299665,316.125642,2934.213717,-1,-1
1.71E+12,2,3.163289873,316.1266207,2934.213273,-1,-1
1.71E+12,2,3.163280039,316.1276034,2934.212835,-1,-1
1.71E+12,2,3.163270167,316.1285901,2934.212401,-1,-1
1.71E+12,2,3.163260255,316.1295806,2934.211966,-1,-1
1.71E+12,2,3.163250308,316.1305748,2934.211532,-1,-1
1.71E+12,2,3.163240327,316.1315723,2934.211101,-1,-1
1.71E+12,2,3.163230314,316.1325729,2934.210667,-1,-1
1.71E+12,2,3.163220273,316.1335765,2934.210228,-1,-1
1.71E+12,2,3.163210204,316.1345828,2934.209785,-1,-1
1.71E+12,2,3.163200109,316.1355918,2934.209336,-1,-1
1.71E+12,2,3.163189986,316.1366034,2934.208879,-1,-1
1.71E+12,2,3.163179836,316.1376179,2934.208415,-1,-1
1.71E+12,2,3.163169659,316.138635,2934.207949,-1,-1
1.71E+12,2,3.163159458,316.1396545,2934.207473,-1,-1
1.71E+12,2,3.163149234,316.1406764,2934.206985,-1,-1
1.71E+12,2,3.163138987,316.1417005,2934.206485,-1,-1
1.71E+12,2,3.163128718,316.1427269,2934.205969,-1,-1
1.71E+12,2,3.163118426,316.1437556,2934.205434,-1,-1
1.71E+12,2,3.163108105,316.1447871,2934.204887,-1,-1
1.71E+12,2,3.163097754,316.1458216,2934.204329,-1,-1
1.71E+12,2,3.163087373,316.1468593,2934.203758,-1,-1
1.71E+12,2,3.163076961,316.1478999,2934.203175,-1,-1
1.71E+12,2,3.16306652,316.1489435,2934.202584,-1,-1
1.71E+12,2,3.16305605,316.14999,2934.201978,-1,-1
1.71E+12,2,3.163045553,316.1510392,2934.201357,-1,-1
1.71E+12,2,3.163035032,316.1520908,2934.200722,-1,-1
1.71E+12,2,3.163024487,316.1531449,2934.200073,-1,-1
1.71E+12,2,3.163013916,316.1542014,2934.199404,-1,-1
1.71E+12,2,3.163003321,316.1552605,2934.198721,-1,-1
1.71E+12,2,3.162992702,316.156322,2934.198027,-1,-1
1.71E+12,2,3.162982059,316.1573858,2934.197318,-1,-1
1.71E+12,2,3.162971389,316.1584523,2934.196595,-1,-1
1.71E+12,2,3.162960693,316.1595215,2934.195862,-1,-1
1.71E+12,2,3.16294997,316.1605934,2934.195118,-1,-1
1.71E+12,2,3.16293922,316.1616679,2934.194365,-1,-1
1.71E+12,2,3.162928443,316.1627452,2934.193603,-1,-1
1.71E+12,2,3.162917644,316.1638247,2934.192833,-1,-1
1.71E+12,2,3.162906828,316.1649058,2934.192053,-1,-1
1.71E+12,2,3.162895996,316.1659886,2934.191264,-1,-1
1.71E+12,2,3.162885148,316.1670731,2934.190468,-1,-1
1.71E+12,2,3.162874279,316.1681596,2934.189664,-1,-1
1.71E+12,2,3.16286339,316.1692482,2934.188853,-1,-1
1.71E+12,2,3.162852477,316.1703391,2934.188041,-1,-1
1.71E+12,2,3.162841535,316.171433,2934.187229,-1,-1
1.71E+12,2,3.162830561,316.1725299,2934.186416,-1,-1
1.71E+12,2,3.162819555,316.1736302,2934.185606,-1,-1
1.71E+12,2,3.162808513,316.1747341,2934.184804,-1,-1
1.71E+12,2,3.162797432,316.1758419,2934.18401,-1,-1
1.71E+12,2,3.162786309,316.1769539,2934.183226,-1,-1
1.71E+12,2,3.162775144,316.1780701,2934.182456,-1,-1
1.71E+12,2,3.162763937,316.1791905,2934.181701,-1,-1
1.71E+12,2,3.162752685,316.1803153,2934.180961,-1,-1
1.71E+12,2,3.162741389,316.1814447,2934.180242,-1,-1
1.71E+12,2,3.162730048,316.1825785,2934.179545,-1,-1
1.71E+12,2,3.162718664,316.1837166,2934.178871,-1,-1
1.71E+12,2,3.162707237,316.1848591,2934.178223,-1,-1
1.71E+12,2,3.162695767,316.1860058,2934.177608,-1,-1
1.71E+12,2,3.162684255,316.1871568,2934.177026,-1,-1
1.71E+12,2,3.1626727,316.188312,2934.176481,-1,-1
1.71E+12,2,3.162661104,316.1894714,2934.175977,-1,-1
1.71E+12,2,3.162649469,316.1906347,2934.175516,-1,-1
1.71E+12,2,3.1626378,316.1918013,2934.175096,-1,-1
1.71E+12,2,3.162626097,316.1929714,2934.17472,-1,-1
1.71E+12,2,3.162614359,316.194145,2934.174391,-1,-1
1.71E+12,2,3.162602588,316.195322,2934.17411,-1,-1
1.71E+12,2,3.162590785,316.1965021,2934.173879,-1,-1
1.71E+12,2,3.162578953,316.1976851,2934.173702,-1,-1
1.71E+12,2,3.162567091,316.198871,2934.173579,-1,-1
1.71E+12,2,3.162555199,316.2000601,2934.173508,-1,-1
1.71E+12,2,3.162543273,316.2012525,2934.17349,-1,-1
1.71E+12,2,3.162531314,316.2024482,2934.17353,-1,-1
1.71E+12,2,3.162519324,316.2036471,2934.173626,-1,-1
1.71E+12,2,3.1625073,316.2048494,2934.173779,-1,-1
1.71E+12,2,3.162495242,316.2060551,2934.173993,-1,-1
1.71E+12,2,3.162483153,316.2072638,2934.174268,-1,-1
1.71E+12,2,3.162471036,316.2084754,2934.174602,-1,-1
1.71E+12,2,3.162458892,316.2096896,2934.174997,-1,-1
1.71E+12,2,3.162446723,316.2109065,2934.175454,-1,-1
1.71E+12,2,3.16243453,316.2121257,2934.175971,-1,-1
1.71E+12,2,3.162422313,316.2133473,2934.176551,-1,-1
1.71E+12,2,3.162410077,316.2145709,2934.177196,-1,-1
1.71E+12,2,3.162397821,316.2157964,2934.177903,-1,-1
1.71E+12,2,3.162385548,316.2170236,2934.178669,-1,-1
1.71E+12,2,3.162373257,316.2182527,2934.179492,-1,-1
1.71E+12,2,3.162360948,316.2194836,2934.18037,-1,-1
1.71E+12,2,3.162348617,316.2207167,2934.181298,-1,-1
1.71E+12,2,3.162336263,316.221952,2934.182279,-1,-1
1.71E+12,2,3.162323889,316.2231895,2934.183312,-1,-1
1.71E+12,2,3.162311494,316.224429,2934.184396,-1,-1
1.71E+12,2,3.162299078,316.2256706,2934.185525,-1,-1
1.71E+12,2,3.162286639,316.2269146,2934.186698,-1,-1
1.71E+12,2,3.162274172,316.2281613,2934.187918,-1,-1
1.71E+12,2,3.162261676,316.229411,2934.189181,-1,-1
1.71E+12,2,3.16224915,316.2306637,2934.190485,-1,-1
1.71E+12,2,3.162236595,316.2319193,2934.191833,-1,-1
1.71E+12,2,3.162224012,316.2331776,2934.193219,-1,-1
1.71E+12,2,3.162211406,316.2344383,2934.194641,-1,-1
1.71E+12,2,3.162198777,316.2357014,2934.196094,-1,-1
1.71E+12,2,3.162186124,316.2369668,2934.197576,-1,-1
1.71E+12,2,3.162173448,316.2382346,2934.199082,-1,-1
1.71E+12,2,3.162160744,316.2395051,2934.200609,-1,-1
1.71E+12,2,3.162148012,316.2407785,2934.202158,-1,-1
1.71E+12,2,3.162135253,316.2420546,2934.203723,-1,-1
1.71E+12,2,3.16212247,316.2433331,2934.205298,-1,-1
1.71E+12,2,3.162109662,316.2446141,2934.206878,-1,-1
1.71E+12,2,3.162096826,316.2458979,2934.208459,-1,-1
1.71E+12,2,3.162083963,316.2471845,2934.210036,-1,-1
1.71E+12,2,3.162071071,316.2484739,2934.211607,-1,-1
1.71E+12,2,3.162058153,316.2497659,2934.213171,-1,-1
1.71E+12,2,3.162045215,316.2510601,2934.214723,-1,-1
1.71E+12,2,3.16203226,316.2523558,2934.216258,-1,-1
1.71E+12,2,3.162019291,316.2536529,2934.217772,-1,-1
1.71E+12,2,3.16200631,316.2549514,2934.219263,-1,-1
1.71E+12,2,3.161993315,316.2562512,2934.220724,-1,-1
1.71E+12,2,3.161980306,316.2575524,2934.222153,-1,-1
1.71E+12,2,3.161967279,316.2588554,2934.223551,-1,-1
1.71E+12,2,3.161954234,316.2601602,2934.224915,-1,-1
1.71E+12,2,3.16194117,316.2614671,2934.22624,-1,-1
1.71E+12,2,3.16192808,316.2627764,2934.227523,-1,-1
1.71E+12,2,3.161914961,316.2640886,2934.228765,-1,-1
1.71E+12,2,3.161901811,316.2654041,2934.229961,-1,-1
1.71E+12,2,3.161888628,316.2667227,2934.231109,-1,-1
1.71E+12,2,3.161875412,316.2680447,2934.232211,-1,-1
1.71E+12,2,3.161862162,316.2693701,2934.233263,-1,-1
1.71E+12,2,3.161848879,316.2706989,2934.234259,-1,-1
1.71E+12,2,3.161835561,316.2720311,2934.235198,-1,-1
1.71E+12,2,3.161822208,316.2733668,2934.23608,-1,-1
1.71E+12,2,3.161808822,316.2747059,2934.2369,-1,-1
1.71E+12,2,3.161795402,316.2760484,2934.237657,-1,-1
1.71E+12,2,3.161781946,316.2773944,2934.238353,-1,-1
1.71E+12,2,3.161768455,316.278744,2934.238984,-1,-1
1.71E+12,2,3.161754928,316.2800972,2934.239552,-1,-1
1.71E+12,2,3.161741362,316.2814542,2934.240054,-1,-1
1.71E+12,2,3.161727759,316.282815,2934.24049,-1,-1
1.71E+12,2,3.16171412,316.2841794,2934.240855,-1,-1
1.71E+12,2,3.161700444,316.2855476,2934.24115,-1,-1
1.71E+12,2,3.161686727,316.2869197,2934.241379,-1,-1
1.71E+12,2,3.161672971,316.2882959,2934.241538,-1,-1
1.71E+12,2,3.161659174,316.2896761,2934.241627,-1,-1
1.71E+12,2,3.161645338,316.2910602,2934.241649,-1,-1
1.71E+12,2,3.161631466,316.2924479,2934.241605,-0.999719613,-0.999784106
1.71E+12,2,3.161617559,316.2938392,2934.241491,-0.998875831,-0.998918509
1.71E+12,2,3.161603617,316.295234,2934.241306,-0.997462951,-0.996965013
1.71E+12,2,3.16158964,316.2966323,2934.241055,-0.995472918,-0.993479214
1.71E+12,2,3.161575627,316.2980341,2934.240735,-0.992895341,-0.988008714
1.71E+12,2,3.161561577,316.2994397,2934.240348,-0.989717537,-0.980091342
1.71E+12,2,3.161547491,316.3008489,2934.239901,-0.985924571,-0.969253434
1.71E+12,2,3.161533367,316.3022619,2934.239395,-0.981499329,-0.955008143