Shimmer_89F4_TimestampSync_Unix_CAL,Shimmer_89F4_ECG_EMG_Status1_LPF_CAL,Shimmer_89F4_ECG_EMG_Status2_LPF_CAL,Shimmer_89F4_ECG_IBI_LA_RA_LPF_CAL,Shimmer_89F4_ECG_IBI_LL_LA_LPF_CAL,Shimmer_89F4_ECG_IBI_LL_RA_LPF_CAL,Shimmer_89F4_ECG_IBI_Vx_RL_LPF_CAL,Shimmer_89F4_ECG_LA_RA_24BIT_LPF_CAL,Shimmer_89F4_ECG_LL_LA_24BIT_LPF_CAL,Shimmer_89F4_ECG_LL_RA_24BIT_LPF_CAL,Shimmer_89F4_ECG_Vx_RL_24BIT_LPF_CAL,Shimmer_89F4_ECGtoHR_LA_RA_LPF_CAL,Shimmer_89F4_ECGtoHR_LL_LA_LPF_CAL,Shimmer_89F4_ECGtoHR_LL_RA_LPF_CAL,Shimmer_89F4_ECGtoHR_Vx_RL_LPF_CAL
1.71E+12,128,128,-1,-1,-1,-1,39.33037631,10.44854885,49.77892515,-605.0000721,-1,-1,-1,-1
1.71E+12,128,128,-1,-1,-1,-1,39.33037631,10.44854885,49.77892515,-605.0000721,-1,-1,-1,-1
1.71E+12,128,128,-1,-1,-1,-1,39.33037654,10.44854884,49.77892538,-605.0000721,-1,-1,-1,-1
1.71E+12,128,128,-1,-1,-1,-1,39.33037772,10.44854879,49.7789265,-605.0000721,-1,-1,-1,-1
1.71E+12,128,128,-1,-1,-1,-1,39.33038098,10.44854859,49.77892957,-605.0000721,-1,-1,-1,-1
1.71E+12,128,128,-1,-1,-1,-1,39.3303879,10.44854805,49.77893596,-605.0000721,-1,-1,-1,-1
1.71E+12,128,128,-1,-1,-1,-1,39.3304004,10.44854697,49.77894737,-605.0000721,-1,-1,-1,-1
1.71E+12,128,128,-1,-1,-1,-1,39.33042065,10.4485452,49.77896585,-605.0000721,-1,-1,-1,-1
1.71E+12,128,128,-1,-1,-1,-1,39.33045112,10.44854264,49.77899376,-605.0000721,-1,-1,-1,-1
1.71E+12,128,128,-1,-1,-1,-1,39.33049453,10.44853921,49.77903374,-605.0000721,-1,-1,-1,-1
1.71E+12,128,128,-1,-1,-1,-1,39.33055393,10.44853487,49.7790888,-605.0000721,-1,-1,-1,-1
1.71E+12,128,128,-1,-1,-1,-1,39.33063266,10.44852958,49.77916224,-605.0000721,-1,-1,-1,-1
1.71E+12,128,128,-1,-1,-1,-1,39.33073434,10.44852333,49.77925767,-605.0000721,-1,-1,-1,-1
1.71E+12,128,128,-1,-1,-1,-1,39.33086284,10.44851606,49.7793789,-605.0000721,-1,-1,-1,-1
1.71E+12,128,128,-1,-1,-1,-1,39.33102223,10.4485077,49.77952993,-605.0000721,-1,-1,-1,-1
1.71E+12,128,128,-1,-1,-1,-1,39.33121674,10.44849821,49.77971496,-605.0000721,-1,-1,-1,-1
1.71E+12,128,128,-1,-1,-1,-1,39.33145071,10.44848752,49.77993823,-605.0000721,-1,-1,-1,-1
1.71E+12,128,128,-1,-1,-1,-1,39.33172855,10.44847553,49.78020407,-605.0000721,-1,-1,-1,-1
1.71E+12,128,128,-1,-1,-1,-1,39.3320547,10.44846216,49.78051685,-605.0000721,-1,-1,-1,-1
1.71E+12,128,128,-1,-1,-1,-1,39.3324337,10.44844735,49.78088105,-605.0000721,-1,-1,-1,-1
1.71E+12,128,128,-1,-1,-1,-1,39.3328701,10.44843106,49.78130116,-605.0000721,-1,-1,-1,-1
1.71E+12,128,128,-1,-1,-1,-1,39.33336844,10.44841328,49.78178172,-605.0000721,-1,-1,-1,-1
1.71E+12,128,128,-1,-1,-1,-1,39.33393325,10.44839398,49.78232724,-605.0000721,-1,-1,-1,-1
1.71E+12,128,128,-1,-1,-1,-1,39.33456902,10.44837318,49.7829422,-605.0000721,-1,-1,-1,-1
1.71E+12,128,128,-1,-1,-1,-1,39.33528026,10.44835093,49.78363118,-605.0000721,-1,-1,-1,-1
1.71E+12,128,128,-1,-1,-1,-1,39.33607158,10.4483273,49.78439888,-605.0000721,-1,-1,-1,-1
1.71E+12,128,128,-1,-1,-1,-1,39.33694779,10.44830236,49.78525015,-605.0000721,-1,-1,-1,-1
1.71E+12,128,128,-1,-1,-1,-1,39.33791386,10.44827614,49.78618999,-605.0000721,-1,-1,-1,-1
1.71E+12,128,128,-1,-1,-1,-1,39.33897496,10.44824867,49.78722363,-605.0000721,-1,-1,-1,-1
1.71E+12,128,128,-1,-1,-1,-1,39.34013646,10.44822,49.78835646,-605.0000721,-1,-1,-1,-1
1.71E+12,128,128,-1,-1,-1,-1,39.34140394,10.44819016,49.78959411,-605.0000721,-1,-1,-1,-1
1.71E+12,128,128,-1,-1,-1,-1,39.34278318,10.44815925,49.79094243,-605.0000721,-1,-1,-1,-1
1.71E+12,128,128,-1,-1,-1,-1,39.34428015,10.44812736,49.79240751,-605.0000721,-1,-1,-1,-1
1.71E+12,128,128,-1,-1,-1,-1,39.34590111,10.44809458,49.79399569,-605.0000721,-1,-1,-1,-1
1.71E+12,128,128,-1,-1,-1,-1,39.34765254,10.44806101,49.79571355,-605.0000721,-1,-1,-1,-1
1.71E+12,128,128,-1,-1,-1,-1,39.34954109,10.44802678,49.79756787,-605.0000721,-1,-1,-1,-1
1.71E+12,128,128,-1,-1,-1,-1,39.35157363,10.44799202,49.79956565,-605.0000721,-1,-1,-1,-1
1.71E+12,128,128,-1,-1,-1,-1,39.35375719,10.44795688,49.80171407,-605.0000721,-1,-1,-1,-1
1.71E+12,128,128,-1,-1,-1,-1,39.35609898,10.4479215,49.80402048,-605.0000721,-1,-1,-1,-1
1.71E+12,128,128,-1,-1,-1,-1,39.35860632,10.44788601,49.80649233,-605.0000721,-1,-1,-1,-1
1.71E+12,128,128,-1,-1,-1,-1,39.36128668,10.44785057,49.80913725,-605.0000721,-1,-1,-1,-1
1.71E+12,128,128,-1,-1,-1,-1,39.36414771,10.44781536,49.81196307,-605.0000721,-1,-1,-1,-1
1.71E+12,128,128,-1,-1,-1,-1,39.36719726,10.44778059,49.81497785,-605.0000721,-1,-1,-1,-1
1.71E+12,128,128,-1,-1,-1,-1,39.37044341,10.4477465,49.81818991,-605.0000721,-1,-1,-1,-1
1.71E+12,128,128,-1,-1,-1,-1,39.37389444,10.44771335,49.82160779,-605.0000721,-1,-1,-1,-1
1.71E+12,128,128,-1,-1,-1,-1,39.37755884,10.44768141,49.82524025,-605.0000721,-1,-1,-1,-1
1.71E+12,128,128,-1,-1,-1,-1,39.38144531,10.44765101,49.82909632,-605.0000721,-1,-1,-1,-1
1.71E+12,128,128,-1,-1,-1,-1,39.38556275,10.44762249,49.83318524,-605.0000721,-1,-1,-1,-1
1.71E+12,128,128,-1,-1,-1,-1,39.38992027,10.44759622,49.83751649,-605.0000721,-1,-1,-1,-1
1.71E+12,128,128,-1,-1,-1,-1,39.39452715,10.44757265,49.8420998,-605.0000721,-1,-1,-1,-1
1.71E+12,128,128,-1,-1,-1,-1,39.39939289,10.44755224,49.84694513,-605.0000721,-1,-1,-1,-1
1.71E+12,128,128,-1,-1,-1,-1,39.40452713,10.44753551,49.85206264,-605.0000721,-1,-1,-1,-1
1.71E+12,128,128,-1,-1,-1,-1,39.40993975,10.447523,49.85746275,-605.0000721,-1,-1,-1,-1
1.71E+12,128,128,-1,-1,-1,-1,39.41564082,10.44751528,49.8631561,-605.0000721,-1,-1,-1,-1
1.71E+12,128,128,-1,-1,-1,-1,39.42164054,10.44751298,49.86915352,-605.0000721,-1,-1,-1,-1
1.71E+12,128,128,-1,-1,-1,-1,39.42794929,10.44751677,49.87546606,-605.0000721,-1,-1,-1,-1
1.71E+12,128,128,-1,-1,-1,-1,39.43457758,10.44752733,49.88210491,-605.0000721,-1,-1,-1,-1
1.71E+12,128,128,-1,-1,-1,-1,39.44153605,10.44754538,49.88908143,-605.0000721,-1,-1,-1,-1
1.71E+12,128,128,-1,-1,-1,-1,39.44883539,10.44757166,49.89640705,-605.0000721,-1,-1,-1,-1
1.71E+12,128,128,-1,-1,-1,-1,39.45648633,10.44760695,49.90409328,-605.0000721,-1,-1,-1,-1
1.71E+12,128,128,-1,-1,-1,-1,39.46449971,10.44765207,49.91215177,-605.0000721,-1,-1,-1,-1
1.71E+12,128,128,-1,-1,-1,-1,39.4728864,10.44770785,49.92059424,-605.0000721,-1,-1,-1,-1
1.71E+12,128,128,-1,-1,-1,-1,39.48165732,10.44777516,49.92943248,-605.0000721,-1,-1,-1,-1
1.71E+12,128,128,-1,-1,-1,-1,39.49082341,10.44785491,49.93867833,-605.0000721,-1,-1,-1,-1
1.71E+12,128,128,-1,-1,-1,-1,39.50039555,10.44794808,49.94834363,-605.0000721,-1,-1,-1,-1
1.71E+12,128,128,-1,-1,-1,-1,39.51038459,10.44805561,49.95844021,-605.0000721,-1,-1,-1,-1
1.71E+12,128,128,-1,-1,-1,-1,39.52080131,10.44817851,49.96897982,-605.0000721,-1,-1,-1,-1
1.71E+12,128,128,-1,-1,-1,-1,39.53165638,10.44831778,49.97997416,-605.0000721,-1,-1,-1,-1
1.71E+12,128,128,-1,-1,-1,-1,39.54296038,10.44847445,49.99143483,-605.0000721,-1,-1,-1,-1
1.71E+12,128,128,-1,-1,-1,-1,39.5547238,10.44864955,50.00337335,-605.0000721,-1,-1,-1,-1
1.71E+12,128,128,-1,-1,-1,-1,39.56695699,10.4488441,50.0158011,-605.0000721,-1,-1,-1,-1
1.71E+12,128,128,-1,-1,-1,-1,39.57967012,10.44905918,50.0287293,-605.0000721,-1,-1,-1,-1
1.71E+12,128,128,-1,-1,-1,-1,39.59287321,10.44929583,50.04216903,-605.0000721,-1,-1,-1,-1
1.71E+12,128,128,-1,-1,-1,-1,39.6065761,10.4495551,50.0561312,-605.0000721,-1,-1,-1,-1
1.71E+12,128,128,-1,-1,-1,-1,39.62078852,10.44983802,50.07062654,-605.0000721,-1,-1,-1,-1
1.71E+12,128,128,-1,-1,-1,-1,39.63552007,10.45014554,50.08566561,-605.0000721,-1,-1,-1,-1
1.71E+12,128,128,-1,-1,-1,-1,39.65078017,10.45047862,50.10125879,-605.0000721,-1,-1,-1,-1
1.71E+12,128,128,-1,-1,-1,-1,39.66657804,10.45083821,50.11741625,-605.0000721,-1,-1,-1,-1
1.71E+12,128,128,-1,-1,-1,-1,39.68292255,10.45122531,50.13414787,-605.0000721,-1,-1,-1,-1
1.71E+12,128,128,-1,-1,-1,-1,39.69982214,10.451641,50.15146314,-605.0000721,-1,-1,-1,-1
1.71E+12,128,128,-1,-1,-1,-1,39.71728483,10.45208632,50.16937116,-605.0000721,-1,-1,-1,-1
1.71E+12,128,128,-1,-1,-1,-1,39.73531827,10.45256232,50.18788059,-605.0000721,-1,-1,-1,-1
1.71E+12,128,128,-1,-1,-1,-1,39.75392974,10.45306999,50.20699974,-605.0000721,-1,-1,-1,-1
1.71E+12,128,128,-1,-1,-1,-1,39.77312623,10.45361026,50.22673649,-605.0000721,-1,-1,-1,-1
1.71E+12,128,128,-1,-1,-1,-1,39.79291431,10.45418398,50.24709828,-605.0000721,-1,-1,-1,-1
1.71E+12,128,128,-1,-1,-1,-1,39.8133002,10.45479198,50.26809218,-605.0000721,-1,-1,-1,-1
1.71E+12,128,128,-1,-1,-1,-1,39.8342897,10.45543512,50.28972483,-605.0000721,-1,-1,-1,-1
1.71E+12,128,128,-1,-1,-1,-1,39.85588823,10.45611419,50.31200241,-605.0000721,-1,-1,-1,-1
1.71E+12,128,128,-1,-1,-1,-1,39.87810074,10.45682994,50.33493068,-605.0000721,-1,-1,-1,-1
1.71E+12,128,128,-1,-1,-1,-1,39.90093177,10.45758311,50.35851489,-605.0000721,-1,-1,-1,-1
1.71E+12,128,128,-1,-1,-1,-1,39.92438539,10.4583744,50.3827598,-605.0000721,-1,-1,-1,-1
1.71E+12,128,128,-1,-1,-1,-1,39.94846521,10.45920442,50.40766964,-605.0000721,-1,-1,-1,-1
1.71E+12,128,128,-1,-1,-1,-1,39.97317436,10.46007372,50.43324808,-605.0000721,-1,-1,-1,-1
1.71E+12,128,128,-1,-1,-1,-1,39.99851543,10.46098282,50.45949824,-605.0000721,-1,-1,-1,-1
1.71E+12,128,128,-1,-1,-1,-1,40.02449047,10.46193218,50.48642266,-605.0000721,-1,-1,-1,-1
1.71E+12,128,128,-1,-1,-1,-1,40.05110098,10.46292228,50.51402326,-605.0000721,-1,-1,-1,-1
1.71E+12,128,128,-1,-1,-1,-1,40.07834787,10.46395353,50.5423014,-605.0000721,-1,-1,-1,-1
1.71E+12,128,128,-1,-1,-1,-1,40.10623147,10.46502632,50.57125779,-605.0000721,-1,-1,-1,-1
1.71E+12,128,128,-1,-1,-1,-1,40.13475151,10.46614097,50.60089248,-605.0000721,-1,-1,-1,-1
1.71E+12,128,128,-1,-1,-1,-1,40.16390712,10.46729772,50.63120484,-605.0000721,-1,-1,-1,-1
1.71E+12,128,128,-1,-1,-1,-1,40.19369684,10.46849674,50.66219358,-605.0000721,-1,-1,-1,-1
1.71E+12,128,128,-1,-1,-1,-1,40.22411863,10.46973816,50.69385679,-605.0000721,-1,-1,-1,-1
1.71E+12,128,128,-1,-1,-1,-1,40.25516983,10.47102201,50.72619184,-605.0000721,-1,-1,-1,-1
1.71E+12,128,128,-1,-1,-1,-1,40.28684719,10.47234828,50.75919547,-605.0000721,-1,-1,-1,-1
1.71E+12,128,128,-1,-1,-1,-1,40.31914679,10.47371689,50.79286368,-605.0000721,-1,-1,-1,-1
1.71E+12,128,128,-1,-1,-1,-1,40.35206404,10.47512771,50.82719174,-605.0000721,-1,-1,-1,-1
1.71E+12,128,128,-1,-1,-1,-1,40.3855937,10.47658048,50.86217418,-605.0000721,-1,-1,-1,-1
1.71E+12,128,128,-1,-1,-1,-1,40.41972985,10.47807492,50.89780477,-605.0000721,-1,-1,-1,-1
1.71E+12,128,128,-1,-1,-1,-1,40.45446593,10.47961062,50.93407655,-605.0000721,-1,-1,-1,-1
1.71E+12,128,128,-1,-1,-1,-1,40.48979473,10.48118712,50.97098185,-605.0000721,-1,-1,-1,-1
1.71E+12,128,128,-1,-1,-1,-1,40.5257084,10.48280388,51.00851228,-605.0000721,-1,-1,-1,-1
1.71E+12,128,128,-1,-1,-1,-1,40.56219849,10.48446025,51.04665875,-605.0000721,-1,-1,-1,-1
1.71E+12,128,128,-1,-1,-1,-1,40.59925596,10.48615549,51.08541145,-605.0000721,-1,-1,-1,-1
1.71E+12,128,128,-1,-1,-1,-1,40.63687113,10.48788879,51.12475991,-605.0000721,-1,-1,-1,-1
1.71E+12,128,128,-1,-1,-1,-1,40.67503365,10.48965927,51.16469292,-605.0000721,-1,-1,-1,-1
1.71E+12,128,128,-1,-1,-1,-1,40.71373258,10.49146602,51.2051986,-605.0000721,-1,-1,-1,-1
1.71E+12,128,128,-1,-1,-1,-1,40.75295631,10.49330807,51.24626438,-605.0000721,-1,-1,-1,-1
1.71E+12,128,128,-1,-1,-1,-1,40.79269266,10.49518437,51.28787703,-605.0000721,-1,-1,-1,-1
1.71E+12,128,128,-1,-1,-1,-1,40.83292889,10.49709379,51.33002268,-605.0000721,-1,-1,-1,-1
1.71E+12,128,128,-1,-1,-1,-1,40.87365175,10.49903514,51.3726869,-605.0000721,-1,-1,-1,-1
1.71E+12,128,128,-1,-1,-1,-1,40.91484748,10.50100721,51.41585469,-605.0000721,-1,-1,-1,-1
1.71E+12,128,128,-1,-1,-1,-1,40.95650178,10.50300868,51.45951047,-605.0000721,-1,-1,-1,-1
1.71E+12,128,128,-1,-1,-1,-1,40.9985998,10.50503817,51.50363797,-605.0000721,-1,-1,-1,-1
1.71E+12,128,128,-1,-1,-1,-1,41.04112615,10.50709419,51.54822034,-605.0000721,-1,-1,-1,-1
1.71E+12,128,128,-1,-1,-1,-1,41.08406492,10.50917517,51.59324009,-605.0000721,-1,-1,-1,-1
1.71E+12,128,128,-1,-1,-1,-1,41.12739966,10.51127957,51.63867923,-605.0000721,-1,-1,-1,-1
1.71E+12,128,128,-1,-1,-1,-1,41.17111345,10.5134058,51.68451925,-605.0000721,-1,-1,-1,-1
1.71E+12,128,128,-1,-1,-1,-1,41.21518886,10.51555223,51.73074109,-605.0000721,-1,-1,-1,-1
1.71E+12,128,128,-1,-1,-1,-1,41.25960799,10.5177172,51.7773252,-605.0000721,-1,-1,-1,-1
1.71E+12,128,128,-1,-1,-1,-1,41.30435261,10.51989903,51.82425164,-605.0000721,-1,-1,-1,-1
1.71E+12,128,128,-1,-1,-1,-1,41.34940415,10.52209598,51.87150013,-605.0000721,-1,-1,-1,-1
1.71E+12,128,128,-1,-1,-1,-1,41.39474378,10.52430629,51.91905006,-605.0000721,-1,-1,-1,-1
1.71E+12,128,128,-1,-1,-1,-1,41.4403523,10.52652822,51.96688052,-605.0000721,-1,-1,-1,-1
1.71E+12,128,128,-1,-1,-1,-1,41.48621026,10.52876001,52.01497028,-605.0000721,-1,-1,-1,-1
1.71E+12,128,128,-1,-1,-1,-1,41.532298,10.53099992,52.06329792,-605.0000721,-1,-1,-1,-1
1.71E+12,128,128,-1,-1,-1,-1,41.57859575,10.53324619,52.11184194,-605.0000721,-1,-1,-1,-1
1.71E+12,128,128,-1,-1,-1,-1,41.6250836,10.53549708,52.16058068,-605.0000721,-1,-1,-1,-1
1.71E+12,128,128,-1,-1,-1,-1,41.67174158,10.53775082,52.2094924,-605.0000721,-1,-1,-1,-1
1.71E+12,128,128,-1,-1,-1,-1,41.71854967,10.54000567,52.25855535,-605.0000721,-1,-1,-1,-1
1.71E+12,128,128,-1,-1,-1,-1,41.76548789,10.54225992,52.3077478,-605.0000721,-1,-1,-1,-1
1.71E+12,128,128,-1,-1,-1,-1,41.81253625,10.5445118,52.35704805,-605.0000721,-1,-1,-1,-1
1.71E+12,128,128,-1,-1,-1,-1,41.85967486,10.54675957,52.40643443,-605.0000721,-1,-1,-1,-1
1.71E+12,128,128,-1,-1,-1,-1,41.90688389,10.54900154,52.45588543,-605.0000721,-1,-1,-1,-1
1.71E+12,128,128,-1,-1,-1,-1,41.95414371,10.55123602,52.50537973,-605.0000721,-1,-1,-1,-1
1.71E+12,128,128,-1,-1,-1,-1,42.00143487,10.55346138,52.55489625,-605.0000721,-1,-1,-1,-1
1.71E+12,128,128,-1,-1,-1,-1,42.04873816,10.55567598,52.60441414,-605.0000721,-1,-1,-1,-1
1.71E+12,128,128,-1,-1,-1,-1,42.09603465,10.55787828,52.65391293,-605.0000721,-1,-1,-1,-1
1.71E+12,128,128,-1,-1,-1,-1,42.14330568,10.56006679,52.70337247,-605.0000721,-1,-1,-1,-1
1.71E+12,128,128,-1,-1,-1,-1,42.19053293,10.56224007,52.75277299,-605.0000721,-1,-1,-1,-1
1.71E+12,128,128,-1,-1,-1,-1,42.23769843,10.56439669,52.80209512,-605.0000721,-1,-1,-1,-1
1.71E+12,128,128,-1,-1,-1,-1,42.28478461,10.5665353,52.8513199,-605.0000721,-1,-1,-1,-1
1.71E+12,128,128,-1,-1,-1,-1,42.33177436,10.56865456,52.90042892,-605.0000721,-1,-1,-1,-1
1.71E+12,128,128,-1,-1,-1,-1,42.37865105,10.57075325,52.94940431,-605.0000721,-1,-1,-1,-1
1.71E+12,128,128,-1,-1,-1,-1,42.42539849,10.57283021,52.9982287,-605.0000721,-1,-1,-1,-1
1.71E+12,128,128,-1,-1,-1,-1,42.47200096,10.57488437,53.04688533,-605.0000721,-1,-1,-1,-1
1.71E+12,128,128,-1,-1,-1,-1,42.51844331,10.57691471,53.09535801,-605.0000721,-1,-1,-1,-1
1.71E+12,128,128,-1,-1,-1,-1,42.56471089,10.57892028,53.14363116,-605.0000721,-1,-1,-1,-1
1.71E+12,128,128,-1,-1,-1,-1,42.61078959,10.58090024,53.19168983,-605.0000721,-1,-1,-1,-1
1.71E+12,128,128,-1,-1,-1,-1,42.65666587,10.58285386,53.23951973,-605.0000721,-1,-1,-1,-1
1.71E+12,128,128,-1,-1,-1,-1,42.70232685,10.58478044,53.28710729,-605.0000721,-1,-1,-1,-1
1.71E+12,128,128,-1,-1,-1,-1,42.74776028,10.58667938,53.33443966,-605.0000721,-1,-1,-1,-1
1.71E+12,128,128,-1,-1,-1,-1,42.79295463,10.58855012,53.38150475,-605.0000721,-1,-1,-1,-1
1.71E+12,128,128,-1,-1,-1,-1,42.83789899,10.59039224,53.42829123,-605.0000721,-1,-1,-1,-1
1.71E+12,128,128,-1,-1,-1,-1,42.88258312,10.59220538,53.4747885,-605.0000721,-1,-1,-1,-1
1.71E+12,128,128,-1,-1,-1,-1,42.92699742,10.59398928,53.5209867,-605.0000721,-1,-1,-1,-1
1.71E+12,128,128,-1,-1,-1,-1,42.97113298,10.59574371,53.56687668,-605.0000721,-1,-1,-1,-1
1.71E+12,128,128,-1,-1,-1,-1,43.01498156,10.59746851,53.61245006,-605.0000721,-1,-1,-1,-1
1.71E+12,128,128,-1,-1,-1,-1,43.05853567,10.59916358,53.65769924,-605.0000721,-1,-1,-1,-1
1.71E+12,128,128,-1,-1,-1,-1,43.10178852,10.6008289,53.70261741,-605.0000721,-1,-1,-1,-1
1.71E+12,128,128,-1,-1,-1,-1,43.14473403,10.60246454,53.74719857,-605.0000721,-1,-1,-1,-1
1.71E+12,128,128,-1,-1,-1,-1,43.18736689,10.60407067,53.79143756,-605.0000721,-1,-1,-1,-1
1.71E+12,128,128,-1,-1,-1,-1,43.2296825,10.60564757,53.83533007,-605.0000721,-1,-1,-1,-1
1.71E+12,128,128,-1,-1,-1,-1,43.27167699,10.60719563,53.87887262,-605.0000721,-1,-1,-1,-1
1.71E+12,128,128,-1,-1,-1,-1,43.31334725,10.60871527,53.92206252,-605.0000721,-1,-1,-1,-1
1.71E+12,128,128,-1,-1,-1,-1,43.35469088,10.61020702,53.9648979,-605.0000721,-1,-1,-1,-1
1.71E+12,128,128,-1,-1,-1,-1,43.39570618,10.61167147,54.00737765,-605.0000721,-1,-1,-1,-1
1.71E+12,128,128,-1,-1,-1,-1,43.43639218,10.61310925,54.04950143,-605.0000721,-1,-1,-1,-1
1.71E+12,128,128,-1,-1,-1,-1,43.47674862,10.61452111,54.09126973,-605.0000721,-1,-1,-1,-1
1.71E+12,128,128,-1,-1,-1,-1,43.51677602,10.61590783,54.13268385,-605.0000721,-1,-1,-1,-1
1.71E+12,128,128,-1,-1,-1,-1,43.55647556,10.61727024,54.1737458,-605.0000721,-1,-1,-1,-1
1.71E+12,128,128,-1,-1,-1,-1,43.59584912,10.61860921,54.21445832,-605.0000721,-1,-1,-1,-1
1.71E+12,128,128,-1,-1,-1,-1,43.63489919,10.61992565,54.25482484,-605.0000721,-1,-1,-1,-1
1.71E+12,128,128,-1,-1,-1,-1,43.67362886,10.62122058,54.29484944,-605.0000721,-1,-1,-1,-1
1.71E+12,128,128,-1,-1,-1,-1,43.71204179,10.62249507,54.33453686,-605.0000721,-1,-1,-1,-1
1.71E+12,128,128,-1,-1,-1,-1,43.75014218,10.62375022,54.37389241,-605.0000721,-1,-1,-1,-1
1.71E+12,128,128,-1,-1,-1,-1,43.7879348,10.62498715,54.41292195,-605.0000721,-1,-1,-1,-1
1.71E+12,128,128,-1,-1,-1,-1,43.82542485,10.62620703,54.45163188,-605.0000721,-1,-1,-1,-1
1.71E+12,128,128,-1,-1,-1,-1,43.86261803,10.62741104,54.49002907,-605.0000721,-1,-1,-1,-1
1.71E+12,128,128,-1,-1,-1,-1,43.89952046,10.62860043,54.52812088,-605.0000721,-1,-1,-1,-1
1.71E+12,128,128,-1,-1,-1,-1,43.93613863,10.62977645,54.56591508,-605.0000721,-1,-1,-1,-1
1.71E+12,128,128,-1,-1,-1,-1,43.97247936,10.63094043,54.60341978,-605.0000721,-1,-1,-1,-1
1.71E+12,128,128,-1,-1,-1,-1,44.00854976,10.63209369,54.64064346,-605.0000721,-1,-1,-1,-1
1.71E+12,128,128,-1,-1,-1,-1,44.04435723,10.63323763,54.67759486,-605.0000721,-1,-1,-1,-1
1.71E+12,128,128,-1,-1,-1,-1,44.07990942,10.63437363,54.71428305,-605.0000721,-1,-1,-1,-1
1.71E+12,128,128,-1,-1,-1,-1,44.11521423,10.6355031,54.75071733,-605.0000721,-1,-1,-1,-1
1.71E+12,128,128,-1,-1,-1,-1,44.15027978,10.63662747,54.78690725,-605.0000721,-1,-1,-1,-1
1.71E+12,128,128,-1,-1,-1,-1,44.1851144,10.63774815,54.82286255,-605.0000721,-1,-1,-1,-1
1.71E+12,128,128,-1,-1,-1,-1,44.21972663,10.63886656,54.85859319,-605.0000721,-1,-1,-1,-1
1.71E+12,128,128,-1,-1,-1,-1,44.25412515,10.63998411,54.89410926,-605.0000721,-1,-1,-1,-1
1.71E+12,128,128,-1,-1,-1,-1,44.28831879,10.64110223,54.92942102,-605.0000721,-1,-1,-1,-1
1.71E+12,128,128,-1,-1,-1,-1,44.3223165,10.6422223,54.9645388,-605.0000721,-1,-1,-1,-1
1.71E+12,128,128,-1,-1,-1,-1,44.35612731,10.64334573,54.99947304,-605.0000721,-1,-1,-1,-1
1.71E+12,128,128,-1,-1,-1,-1,44.38976012,10.64447391,55.03423403,-605.0000721,-1,-1,-1,-1
1.71E+12,128,128,-1,-1,-1,-1,44.42322347,10.64560823,55.06883169,-605.0000721,-1,-1,-1,-1
1.71E+12,128,128,-1,-1,-1,-1,44.45652549,10.64675013,55.10327561,-605.0000721,-1,-1,-1,-1
1.71E+12,128,128,-1,-1,-1,-1,44.48967394,10.64790113,55.13757507,-605.0000721,-1,-1,-1,-1
1.71E+12,128,128,-1,-1,-1,-1,44.52267626,10.64906271,55.17173897,-605.0000721,-1,-1,-1,-1
1.71E+12,128,128,-1,-1,-1,-1,44.55553957,10.65023627,55.20577584,-605.0000721,-1,-1,-1,-1
1.71E+12,128,128,-1,-1,-1,-1,44.58827068,10.65142315,55.23969383,-605.0000721,-1,-1,-1,-1
1.71E+12,128,128,-1,-1,-1,-1,44.62087604,10.65262463,55.27350067,-605.0000721,-1,-1,-1,-1
1.71E+12,128,128,-1,-1,-1,-1,44.65336174,10.65384193,55.30720367,-605.0000721,-1,-1,-1,-1
1.71E+12,128,128,-1,-1,-1,-1,44.68573343,10.65507624,55.34080967,-605.0000721,-1,-1,-1,-1
1.71E+12,128,128,-1,-1,-1,-1,44.71799639,10.6563287,55.3743251,-605.0000721,-1,-1,-1,-1
1.71E+12,128,128,-1,-1,-1,-1,44.75015555,10.6576005,55.40775604,-605.0000721,-1,-1,-1,-1
1.71E+12,128,128,-1,-1,-1,-1,44.78221545,10.65889279,55.44110824,-605.0000721,-1,-1,-1,-1
1.71E+12,128,128,-1,-1,-1,-1,44.81418038,10.66020673,55.47438711,-605.0000721,-1,-1,-1,-1
1.71E+12,128,128,-1,-1,-1,-1,44.8460543,10.66154344,55.50759774,-605.0000721,-1,-1,-1,-1
1.71E+12,128,128,-1,-1,-1,-1,44.87784092,10.66290409,55.54074502,-605.0000721,-1,-1,-1,-1
1.71E+12,128,128,-1,-1,-1,-1,44.9095437,10.66428979,55.57383349,-605.0000721,-1,-1,-1,-1
1.71E+12,128,128,-1,-1,-1,-1,44.94116579,10.66570163,55.60686742,-605.0000721,-1,-1,-1,-1
1.71E+12,128,128,-1,-1,-1,-1,44.97271019,10.66714067,55.63985085,-605.0000721,-1,-1,-1,-1
1.71E+12,128,128,-1,-1,-1,-1,45.00417972,10.66860792,55.67278764,-605.0000721,-1,-1,-1,-1
1.71E+12,128,128,-1,-1,-1,-1,45.03557709,10.67010442,55.7056815,-605.0000721,-1,-1,-1,-1
1.71E+12,128,128,-1,-1,-1,-1,45.06690482,10.67163112,55.73853594,-605.0000721,-1,-1,-1,-1
1.71E+12,128,128,-1,-1,-1,-1,45.09816525,10.67318896,55.77135421,-605.0000721,-1,-1,-1,-1
1.71E+12,128,128,-1,-1,-1,-1,45.12936036,10.67477885,55.80413922,-605.0000721,-1,-1,-1,-1
1.71E+12,128,128,-1,-1,-1,-1,45.16049179,10.67640175,55.83689354,-605.0000721,-1,-1,-1,-1
1.71E+12,128,128,-1,-1,-1,-1,45.19156081,10.67805856,55.86961937,-605.0000721,-1,-1,-1,-1
1.71E+12,128,128,-1,-1,-1,-1,45.22256835,10.67975021,55.90231856,-605.0000721,-1,-1,-1,-1
1.71E+12,128,128,-1,-1,-1,-1,45.253515,10.68147761,55.93499261,-605.0000721,-1,-1,-1,-1
1.71E+12,128,128,-1,-1,-1,-1,45.28440101,10.68324169,55.9676427,-605.0000721,-1,-1,-1,-1
1.71E+12,128,128,-1,-1,-1,-1,45.31522632,10.68504338,56.0002697,-605.0000721,-1,-1,-1,-1
1.71E+12,128,128,-1,-1,-1,-1,45.34599057,10.68688361,56.03287417,-605.0000721,-1,-1,-1,-1
1.71E+12,128,128,-1,-1,-1,-1,45.37669301,10.68876336,56.06545637,-605.0000721,-1,-1,-1,-1
1.71E+12,128,128,-1,-1,-1,-1,45.40733256,10.69068363,56.09801619,-605.0000721,-1,-1,-1,-1
1.71E+12,128,128,-1,-1,-1,-1,45.43790788,10.69264541,56.13055329,-605.0000721,-1,-1,-1,-1
1.71E+12,128,128,-1,-1,-1,-1,45.46841737,10.6946497,56.16306707,-605.0000721,-1,-1,-1,-1
1.71E+12,128,128,-1,-1,-1,-1,45.49885924,10.6966975,56.19555674,-605.0000721,-1,-1,-1,-1
1.71E+12,128,128,-1,-1,-1,-1,45.52923147,10.69878991,56.22802139,-605.0000721,-1,-1,-1,-1
1.71E+12,128,128,-1,-1,-1,-1,45.55953189,10.70092808,56.26045997,-605.0000721,-1,-1,-1,-1
1.71E+12,128,128,-1,-1,-1,-1,45.58975811,10.70311316,56.29287127,-605.0000721,-1,-1,-1,-1
1.71E+12,128,128,-1,-1,-1,-1,45.61990755,10.70534632,56.32525387,-605.0000721,-1,-1,-1,-1
1.71E+12,128,128,-1,-1,-1,-1,45.64997742,10.70762873,56.35760615,-605.0000721,-1,-1,-1,-1
1.71E+12,128,128,-1,-1,-1,-1,45.67996468,10.70996162,56.38992631,-605.0000721,-1,-1,-1,-1
1.71E+12,128,128,-1,-1,-1,-1,45.70986608,10.71234625,56.42221234,-605.0000721,-1,-1,-1,-1
1.71E+12,128,128,-1,-1,-1,-1,45.73967818,10.71478387,56.45446206,-605.0000721,-1,-1,-1,-1
1.71E+12,128,128,-1,-1,-1,-1,45.76939741,10.71727572,56.48667312,-605.0000721,-1,-1,-1,-1
1.71E+12,128,128,-1,-1,-1,-1,45.79902008,10.719823,56.51884308,-605.0000721,-1,-1,-1,-1
1.71E+12,128,128,-1,-1,-1,-1,45.82854241,10.72242691,56.55096932,-605.0000721,-1,-1,-1,-1
1.71E+12,128,128,-1,-1,-1,-1,45.85796043,10.72508863,56.58304907,-605.0000721,-1,-1,-1,-1
1.71E+12,128,128,-1,-1,-1,-1,45.88727,10.72780938,56.61507938,-605.0000721,-1,-1,-1,-1
1.71E+12,128,128,-1,-1,-1,-1,45.91646679,10.73059036,56.64705715,-605.0000721,-1,-1,-1,-1
1.71E+12,128,128,-1,-1,-1,-1,45.94554632,10.73343276,56.67897908,-605.0000721,-1,-1,-1,-1
1.71E+12,128,128,-1,-1,-1,-1,45.97450402,10.73633775,56.71084177,-605.0000721,-1,-1,-1,-1
1.71E+12,128,128,-1,-1,-1,-1,46.00333528,10.73930646,56.74264174,-605.0000721,-1,-1,-1,-1
1.71E+12,128,128,-1,-1,-1,-1,46.03203547,10.74234001,56.77437548,-605.0000721,-1,-1,-1,-1
1.71E+12,128,128,-1,-1,-1,-1,46.06059991,10.74543952,56.80603943,-605.0000721,-1,-1,-1,-1
1.71E+12,128,128,-1,-1,-1,-1,46.0890239,10.74860615,56.83763006,-605.0000721,-1,-1,-1,-1
1.71E+12,128,128,-1,-1,-1,-1,46.11730274,10.75184109,56.86914383,-605.0000721,-1,-1,-1,-1
1.71E+12,128,128,-1,-1,-1,-1,46.14543179,10.75514549,56.90057728,-605.0000721,-1,-1,-1,-1
1.71E+12,128,128,-1,-1,-1,-1,46.17340636,10.75852049,56.93192685,-605.0000721,-1,-1,-1,-1
1.71E+12,128,128,-1,-1,-1,-1,46.20122181,10.7619672,56.96318901,-605.0000721,-1,-1,-1,-1
1.71E+12,128,128,-1,-1,-1,-1,46.22887356,10.76548669,56.99436026,-605.0000721,-1,-1,-1,-1
1.71E+12,128,128,-1,-1,-1,-1,46.25635715,10.76907999,57.02543714,-605.0000721,-1,-1,-1,-1
1.71E+12,128,128,-1,-1,-1,-1,46.28366822,10.77274807,57.05641628,-605.0000721,-1,-1,-1,-1
1.71E+12,128,128,-1,-1,-1,-1,46.31080258,10.77649189,57.08729446,-605.0000721,-1,-1,-1,-1
1.71E+12,128,128,-1,-1,-1,-1,46.33775618,10.7803124,57.11806857,-605.0000721,-1,-1,-1,-1
1.71E+12,128,128,-1,-1,-1,-1,46.3645251,10.78421053,57.14873563,-605.0000721,-1,-1,-1,-1
1.71E+12,128,128,-1,-1,-1,-1,46.39110554,10.78818719,57.17929273,-605.0000721,-1,-1,-1,-1
1.71E+12,128,128,-1,-1,-1,-1,46.41749375,10.79224328,57.20973704,-605.0000721,-1,-1,-1,-1
1.71E+12,128,128,-1,-1,-1,-1,46.44368612,10.79637968,57.2400658,-605.0000721,-1,-1,-1,-1
1.71E+12,128,128,-1,-1,-1,-1,46.46967916,10.8005972,57.27027635,-605.0000721,-1,-1,-1,-1
1.71E+12,128,128,-1,-1,-1,-1,46.49546954,10.8048966,57.30036614,-605.0000721,-1,-1,-1,-1
1.71E+12,128,128,-1,-1,-1,-1,46.52105402,10.80927863,57.33033265,-605.0000721,-1,-1,-1,-1
1.71E+12,128,128,-1,-1,-1,-1,46.54642945,10.81374404,57.36017348,-605.0000721,-1,-1,-1,-1
1.71E+12,128,128,-1,-1,-1,-1,46.57159267,10.81829358,57.38988625,-605.0000721,-1,-1,-1,-1
1.71E+12,128,128,-1,-1,-1,-1,46.59654055,10.822928,57.41946855,-605.0000721,-1,-1,-1,-1
1.71E+12,128,128,-1,-1,-1,-1,46.62126996,10.82764799,57.44891795,-605.0000721,-1,-1,-1,-1
1.71E+12,128,128,-1,-1,-1,-1,46.64577793,10.83245411,57.47823204,-605.0000721,-1,-1,-1,-1
1.71E+12,128,128,-1,-1,-1,-1,46.67006169,10.8373468,57.5074085,-605.0000721,-1,-1,-1,-1
1.71E+12,128,128,-1,-1,-1,-1,46.69411867,10.84232645,57.53644511,-605.0000721,-1,-1,-1,-1
1.71E+12,128,128,-1,-1,-1,-1,46.71794642,10.84739335,57.56533977,-605.0000721,-1,-1,-1,-1
1.71E+12,128,128,-1,-1,-1,-1,46.74154257,10.85254779,57.59409036,-605.0000721,-1,-1,-1,-1
1.71E+12,128,128,-1,-1,-1,-1,46.76490483,10.85779003,57.62269486,-605.0000721,-1,-1,-1,-1
1.71E+12,128,128,-1,-1,-1,-1,46.78803097,10.86312026,57.65115123,-605.0000721,-1,-1,-1,-1
1.71E+12,128,128,-1,-1,-1,-1,46.81091885,10.86853855,57.6794574,-605.0000721,-1,-1,-1,-1
1.71E+12,128,128,-1,-1,-1,-1,46.83356638,10.87404485,57.70761123,-605.0000721,-1,-1,-1,-1
1.71E+12,128,128,-1,-1,-1,-1,46.85597151,10.87963903,57.73561053,-605.0000721,-1,-1,-1,-1
1.71E+12,128,128,-1,-1,-1,-1,46.87813224,10.88532083,57.76345307,-605.0000721,-1,-1,-1,-1
1.71E+12,128,128,-1,-1,-1,-1,46.90004666,10.89108991,57.79113657,-605.0000721,-1,-1,-1,-1
1.71E+12,128,128,-1,-1,-1,-1,46.92171286,10.89694585,57.81865871,-605.0000721,-1,-1,-1,-1
1.71E+12,128,128,-1,-1,-1,-1,46.94312897,10.90288818,57.84601715,-605.0000721,-1,-1,-1,-1
1.71E+12,128,128,-1,-1,-1,-1,46.96429315,10.90891634,57.87320949,-605.0000721,-1,-1,-1,-1
1.71E+12,128,128,-1,-1,-1,-1,46.98520358,10.91502967,57.90023324,-605.0000721,-1,-1,-1,-1
1.71E+12,128,128,-1,-1,-1,-1,47.00585846,10.92122736,57.92708582,-605.0000721,-1,-1,-1,-1
1.71E+12,128,128,-1,-1,-1,-1,47.02625606,10.92750847,57.95376453,-605.0000721,-1,-1,-1,-1
1.71E+12,128,128,-1,-1,-1,-1,47.04639467,10.93387189,57.98026656,-605.0000721,-1,-1,-1,-1
1.71E+12,128,128,-1,-1,-1,-1,47.06627262,10.94031641,58.00658904,-605.0000721,-1,-1,-1,-1
1.71E+12,128,128,-1,-1,-1,-1,47.08588831,10.94684072,58.03272903,-605.0000721,-1,-1,-1,-1
1.71E+12,128,128,-1,-1,-1,-1,47.10524013,10.95344343,58.05868356,-605.0000721,-1,-1,-1,-1
1.71E+12,128,128,-1,-1,-1,-1,47.12432648,10.96012302,58.0844495,-605.0000721,-1,-1,-1,-1
1.71E+12,128,128,-1,-1,-1,-1,47.1431457,10.96687787,58.11002357,-605.0000721,-1,-1,-1,-1
1.71E+12,128,128,-1,-1,-1,-1,47.1616961,10.97370629,58.13540239,-605.0000721,-1,-1,-1,-1
1.71E+12,128,128,-1,-1,-1,-1,47.17997598,10.98060647,58.16058245,-605.0000721,-1,-1,-1,-1
1.71E+12,128,128,-1,-1,-1,-1,47.19798365,10.98757649,58.18556014,-605.0000721,-1,-1,-1,-1
1.71E+12,128,128,-1,-1,-1,-1,47.21571747,10.99461434,58.21033181,-605.0000721,-1,-1,-1,-1
1.71E+12,128,128,-1,-1,-1,-1,47.23317584,11.0017179,58.23489374,-605.0000721,-1,-1,-1,-1
1.71E+12,128,128,-1,-1,-1,-1,47.25035715,11.00888501,58.25924217,-605.0000721,-1,-1,-1,-1
1.71E+12,128,128,-1,-1,-1,-1,47.26725978,11.01611346,58.28337324,-605.0000721,-1,-1,-1,-1
1.71E+12,128,128,-1,-1,-1,-1,47.28388207,11.02340096,58.30728303,-605.0000721,-1,-1,-1,-1
1.71E+12,128,128,-1,-1,-1,-1,47.3002223,11.03074521,58.33096751,-605.0000721,-1,-1,-1,-1
1.71E+12,128,128,-1,-1,-1,-1,47.31627873,11.03814383,58.35442257,-605.0000721,-1,-1,-1,-1
1.71E+12,128,128,-1,-1,-1,-1,47.33204963,11.04559443,58.37764406,-605.0000721,-1,-1,-1,-1
1.71E+12,128,128,-1,-1,-1,-1,47.34753328,11.0530945,58.40062779,-605.0000721,-1,-1,-1,-1
1.71E+12,128,128,-1,-1,-1,-1,47.36272805,11.06064153,58.42336958,-605.0000721,-1,-1,-1,-1
1.71E+12,128,128,-1,-1,-1,-1,47.37763235,11.0682329,58.44586525,-605.0000721,-1,-1,-1,-1
1.71E+12,128,128,-1,-1,-1,-1,47.39224468,11.07586593,58.46811061,-605.0000721,-1,-1,-1,-1
1.71E+12,128,128,-1,-1,-1,-1,47.40656355,11.08353795,58.4901015,-605.0000721,-1,-1,-1,-1
1.71E+12,128,128,-1,-1,-1,-1,47.42058749,11.09124627,58.51183376,-605.0000721,-1,-1,-1,-1
1.71E+12,128,128,-1,-1,-1,-1,47.43431498,11.0989882,58.53330318,-605.0000721,-1,-1,-1,-1
1.71E+12,128,128,-1,-1,-1,-1,47.4477445,11.10676103,58.55450554,-605.0000721,-1,-1,-1,-1
1.71E+12,128,128,-1,-1,-1,-1,47.46087464,11.11456207,58.57543671,-605.0000721,-1,-1,-1,-1
1.71E+12,128,128,-1,-1,-1,-1,47.47370412,11.12238861,58.59609273,-605.0000721,-1,-1,-1,-1
1.71E+12,128,128,-1,-1,-1,-1,47.48623185,11.13023801,58.61646987,-605.0000721,-1,-1,-1,-1
1.71E+12,128,128,-1,-1,-1,-1,47.49845692,11.13810761,58.63656453,-605.0000721,-1,-1,-1,-1
1.71E+12,128,128,-1,-1,-1,-1,47.51037863,11.14599465,58.65637327,-605.0000721,-1,-1,-1,-1
1.71E+12,128,128,-1,-1,-1,-1,47.52199645,11.15389627,58.67589272,-605.0000721,-1,-1,-1,-1
1.71E+12,128,128,-1,-1,-1,-1,47.53331014,11.1618095,58.69511964,-605.0000721,-1,-1,-1,-1
1.71E+12,128,128,-1,-1,-1,-1,47.54431969,11.16973114,58.71405082,-605.0000721,-1,-1,-1,-1
1.71E+12,128,128,-1,-1,-1,-1,47.55502541,11.17765769,58.7326831,-605.0000721,-1,-1,-1,-1
1.71E+12,128,128,-1,-1,-1,-1,47.56542791,11.18558546,58.75101337,-605.0000721,-1,-1,-1,-1
1.71E+12,128,128,-1,-1,-1,-1,47.57552812,11.19351063,58.76903874,-605.0000721,-1,-1,-1,-1
1.71E+12,128,128,-1,-1,-1,-1,47.58532735,11.20142929,58.78675664,-605.0000721,-1,-1,-1,-1
1.71E+12,128,128,-1,-1,-1,-1,47.59482738,11.20933748,58.80416487,-605.0000721,-1,-1,-1,-1
1.71E+12,128,128,-1,-1,-1,-1,47.60403042,11.21723114,58.82126155,-605.0000721,-1,-1,-1,-1
1.71E+12,128,128,-1,-1,-1,-1,47.61293908,11.22510614,58.83804522,-605.0000721,-1,-1,-1,-1
1.71E+12,128,128,-1,-1,-1,-1,47.62155646,11.23295845,58.85451491,-605.0000721,-1,-1,-1,-1
1.71E+12,128,128,-1,-1,-1,-1,47.62988609,11.24078423,58.87067032,-605.0000721,-1,-1,-1,-1
1.71E+12,128,128,-1,-1,-1,-1,47.63793197,11.24858,58.88651197,-605.0000721,-1,-1,-1,-1
1.71E+12,128,128,-1,-1,-1,-1,47.64569865,11.25634258,58.90204123,-605.0000721,-1,-1,-1,-1
1.71E+12,128,128,-1,-1,-1,-1,47.65319106,11.26406942,58.91726049,-605.0000721,-1,-1,-1,-1
1.71E+12,128,128,-1,-1,-1,-1,47.66041417,11.27175901,58.93217318,-605.0000721,-1,-1,-1,-1
1.71E+12,128,128,-1,-1,-1,-1,47.66737278,11.27941103,58.94678381,-605.0000721,-1,-1,-1,-1
1.71E+12,128,128,-1,-1,-1,-1,47.67407122,11.28702671,58.96109793,-605.0000721,-1,-1,-1,-1
1.71E+12,128,128,-1,-1,-1,-1,47.68051323,11.29460892,58.97512214,-605.0000721,-1,-1,-1,-1
1.71E+12,128,128,-1,-1,-1,-1,47.68670241,11.30216117,58.98886358,-605.0000721,-1,-1,-1,-1
1.71E+12,128,128,-1,-1,-1,-1,47.6926425,11.30968682,59.00232932,-605.0000721,-1,-1,-1,-1
1.71E+12,128,128,-1,-1,-1,-1,47.69833749,11.31718876,59.01552625,-605.0000721,-1,-1,-1,-1
1.71E+12,128,128,-1,-1,-1,-1,47.70379157,11.32466932,59.02846089,-605.0000721,-1,-1,-1,-1
1.71E+12,128,128,-1,-1,-1,-1,47.70900905,11.33213035,59.0411394,-605.0000721,-1,-1,-1,-1
1.71E+12,128,128,-1,-1,-1,-1,47.7139942,11.33957359,59.05356779,-605.0000721,-1,-1,-1,-1
1.71E+12,128,128,-1,-1,-1,-1,47.71875131,11.34700086,59.06575216,-605.0000721,-1,-1,-1,-1
1.71E+12,128,128,-1,-1,-1,-1,47.72328483,11.35441396,59.07769879,-605.0000721,-1,-1,-1,-1
1.71E+12,128,128,-1,-1,-1,-1,47.72759952,11.36181449,59.08941401,-605.0000721,-1,-1,-1,-1
1.71E+12,128,128,-1,-1,-1,-1,47.73170032,11.36920388,59.1009042,-605.0000721,-1,-1,-1,-1
1.71E+12,128,128,-1,-1,-1,-1,47.73559246,11.37658339,59.11217585,-605.0000721,-1,-1,-1,-1
1.71E+12,128,128,-1,-1,-1,-1,47.73928155,11.38395417,59.12323572,-605.0000721,-1,-1,-1,-1
1.71E+12,128,128,-1,-1,-1,-1,47.74277373,11.39131719,59.13409092,-605.0000721,-1,-1,-1,-1
1.71E+12,128,128,-1,-1,-1,-1,47.74607565,11.39867333,59.14474898,-605.0000721,-1,-1,-1,-1
1.71E+12,128,128,-1,-1,-1,-1,47.74919439,11.40602354,59.15521793,-605.0000721,-1,-1,-1,-1
1.71E+12,128,128,-1,-1,-1,-1,47.75213749,11.41336884,59.16550632,-605.0000721,-1,-1,-1,-1
1.71E+12,128,128,-1,-1,-1,-1,47.75491268,11.42071045,59.17562313,-605.0000721,-1,-1,-1,-1
1.71E+12,128,128,-1,-1,-1,-1,47.7575278,11.42804982,59.18557762,-605.0000721,-1,-1,-1,-1
1.71E+12,128,128,-1,-1,-1,-1,47.75999075,11.43538854,59.19537929,-605.0000721,-1,-1,-1,-1
1.71E+12,128,128,-1,-1,-1,-1,47.76230939,11.44272846,59.20503785,-605.0000721,-1,-1,-1,-1
1.71E+12,128,128,-1,-1,-1,-1,47.76449158,11.45007167,59.21456325,-605.0000721,-1,-1,-1,-1
1.71E+12,128,128,-1,-1,-1,-1,47.76654509,11.45742049,59.22396557,-605.0000721,-1,-1,-1,-1
1.71E+12,128,128,-1,-1,-1,-1,47.76847759,11.46477745,59.23325504,-605.0000721,-1,-1,-1,-1
1.71E+12,128,128,-1,-1,-1,-1,47.77029661,11.47214523,59.24244184,-605.0000721,-1,-1,-1,-1
1.71E+12,128,128,-1,-1,-1,-1,47.77200941,11.47952667,59.25153608,-605.0000721,-1,-1,-1,-1
1.71E+12,128,128,-1,-1,-1,-1,47.77362302,11.48692471,59.26054773,-605.0000721,-1,-1,-1,-1
1.71E+12,128,128,-1,-1,-1,-1,47.77514413,11.4943424,59.26948653,-605.0000721,-1,-1,-1,-1
1.71E+12,128,128,-1,-1,-1,-1,47.77657912,11.50178281,59.27836194,-605.0000721,-1,-1,-1,-1
1.71E+12,128,128,-1,-1,-1,-1,47.77793399,11.5092491,59.28718309,-605.0000721,-1,-1,-1,-1
1.71E+12,128,128,-1,-1,-1,-1,47.77921435,11.51674441,59.29595876,-605.0000721,-1,-1,-1,-1
1.71E+12,128,128,-1,-1,-1,-1,47.78042551,11.5242719,59.30469741,-605.0000721,-1,-1,-1,-1
1.71E+12,128,128,-1,-1,-1,-1,47.78157246,11.53183472,59.31340718,-605.0000721,-1,-1,-1,-1
1.71E+12,128,128,-1,-1,-1,-1,47.78265991,11.53943601,59.32209592,-605.0000721,-1,-1,-1,-1
1.71E+12,128,128,-1,-1,-1,-1,47.7836923,11.54707884,59.33077114,-605.0000721,-1,-1,-1,-1
1.71E+12,128,128,-1,-1,-1,-1,47.78467379,11.55476626,59.33944004,-605.0000721,-1,-1,-1,-1
1.71E+12,128,128,-1,-1,-1,-1,47.7856083,11.56250122,59.34810952,-605.0000721,-1,-1,-1,-1
1.71E+12,128,128,-1,-1,-1,-1,47.78649956,11.57028658,59.35678614,-605.0000721,-1,-1,-1,-1
1.71E+12,128,128,-1,-1,-1,-1,47.78735116,11.57812499,59.36547615,-605.0000721,-1,-1,-1,-1
1.71E+12,128,128,-1,-1,-1,-1,47.78816652,11.58601895,59.37418547,-605.0000721,-1,-1,-1,-1
1.71E+12,128,128,-1,-1,-1,-1,47.78894888,11.59397081,59.3829197,-605.0000721,-1,-1,-1,-1
1.71E+12,128,128,-1,-1,-1,-1,47.78970136,11.60198274,59.3916841,-605.0000721,-1,-1,-1,-1
1.71E+12,128,128,-1,-1,-1,-1,47.79042688,11.6100567,59.40048358,-605.0000721,-1,-1,-1,-1
1.71E+12,128,128,-1,-1,-1,-1,47.7911282,11.61819447,59.40932266,-605.0000721,-1,-1,-1,-1
1.71E+12,128,128,-1,-1,-1,-1,47.7918079,11.62639752,59.41820542,-605.0000721,-1,-1,-1,-1
1.71E+12,128,128,-1,-1,-1,-1,47.79246838,11.63466712,59.4271355,-605.0000721,-1,-1,-1,-1
1.71E+12,128,128,-1,-1,-1,-1,47.79311188,11.64300424,59.43611612,-605.0000721,-1,-1,-1,-1
1.71E+12,128,128,-1,-1,-1,-1,47.79374047,11.65140955,59.44515002,-605.0000721,-1,-1,-1,-1
1.71E+12,128,128,-1,-1,-1,-1,47.79435608,11.65988341,59.4542395,-605.0000721,-1,-1,-1,-1
1.71E+12,128,128,-1,-1,-1,-1,47.79496056,11.66842588,59.46338645,-605.0000721,-1,-1,-1,-1
1.71E+12,128,128,-1,-1,-1,-1,47.79555565,11.67703669,59.47259234,-605.0000721,-1,-1,-1,-1
1.71E+12,128,128,-1,-1,-1,-1,47.79614298,11.68571528,59.48185826,-605.0000721,-1,-1,-1,-1
1.71E+12,128,128,-1,-1,-1,-1,47.79672408,11.6944608,59.49118488,-605.0000721,-1,-1,-1,-1
1.71E+12,128,128,-1,-1,-1,-1,47.79730036,11.70327208,59.50057244,-605.0000721,-1,-1,-1,-1
1.71E+12,128,128,-1,-1,-1,-1,47.79787318,11.71214762,59.5100208,-605.0000721,-1,-1,-1,-1
1.71E+12,128,128,-1,-1,-1,-1,47.79844382,11.7210856,59.51952943,-605.0000721,-1,-1,-1,-1
1.71E+12,128,128,-1,-1,-1,-1,47.79901352,11.73008389,59.52909741,-605.0000721,-1,-1,-1,-1
1.71E+12,128,128,-1,-1,-1,-1,47.79958343,11.73914003,59.53872346,-605.0000721,-1,-1,-1,-1
1.71E+12,128,128,-1,-1,-1,-1,47.80015464,11.74825127,59.54840591,-605.0000721,-1,-1,-1,-1
1.71E+12,128,128,-1,-1,-1,-1,47.80072819,11.75741456,59.55814275,-605.0000721,-1,-1,-1,-1
1.71E+12,128,128,-1,-1,-1,-1,47.80130498,11.76662657,59.56793155,-605.0000721,-1,-1,-1,-1
1.71E+12,128,128,-1,-1,-1,-1,47.80188589,11.77588366,59.57776955,-605.0000721,-1,-1,-1,-1
1.71E+12,128,128,-1,-1,-1,-1,47.80247177,11.78518191,59.58765369,-605.0000721,-1,-1,-1,-1
1.71E+12,128,128,-1,-1,-1,-1,47.80306354,11.79451714,59.59758068,-605.0000721,-1,-1,-1,-1
1.71E+12,128,128,-1,-1,-1,-1,47.8036622,11.80388486,59.60754706,-605.0000721,-1,-1,-1,-1
1.71E+12,128,128,-1,-1,-1,-1,47.80426883,11.81328039,59.61754922,-605.0000721,-1,-1,-1,-1
1.71E+12,128,128,-1,-1,-1,-1,47.80488465,11.82269873,59.62758338,-605.0000721,-1,-1,-1,-1
1.71E+12,128,128,-1,-1,-1,-1,47.80551104,11.83213469,59.63764573,-605.0000721,-1,-1,-1,-1
1.71E+12,128,128,-1,-1,-1,-1,47.8061495,11.84158285,59.64773235,-605.0000721,-1,-1,-1,-1
1.71E+12,128,128,-1,-1,-1,-1,47.80680171,11.85103757,59.65783928,-605.0000721,-1,-1,-1,-1
1.71E+12,128,128,-1,-1,-1,-1,47.80746949,11.86049301,59.66796249,-605.0000721,-1,-1,-1,-1
1.71E+12,128,128,-1,-1,-1,-1,47.80815484,11.86994321,59.67809805,-605.0000721,-1,-1,-1,-1
1.71E+12,128,128,-1,-1,-1,-1,47.80886004,11.87938209,59.68824214,-605.0000721,-1,-1,-1,-1
1.71E+12,128,128,-1,-1,-1,-1,47.80958769,11.88880342,59.6983911,-605.0000721,-1,-1,-1,-1
1.71E+12,128,128,-1,-1,-1,-1,47.81034065,11.89820083,59.70854149,-605.0000721,-1,-1,-1,-1
1.71E+12,128,128,-1,-1,-1,-1,47.81112209,11.90756789,59.71868999,-605.0000721,-1,-1,-1,-1
1.71E+12,128,128,-1,-1,-1,-1,47.81193545,11.91689806,59.72883351,-605.0000721,-1,-1,-1,-1
1.71E+12,128,128,-1,-1,-1,-1,47.81278445,11.92618476,59.73896921,-605.0000721,-1,-1,-1,-1
1.71E+12,128,128,-1,-1,-1,-1,47.81367315,11.93542138,59.74909453,-605.0000721,-1,-1,-1,-1
1.71E+12,128,128,-1,-1,-1,-1,47.81460599,11.94460133,59.75920732,-605.0000721,-1,-1,-1,-1
1.71E+12,128,128,-1,-1,-1,-1,47.81558785,11.953718,59.76930585,-605.0000721,-1,-1,-1,-1
1.71E+12,128,128,-1,-1,-1,-1,47.81662405,11.96276481,59.77938886,-605.0000721,-1,-1,-1,-1
1.71E+12,128,128,-1,-1,-1,-1,47.81772037,11.97173523,59.78945559,-605.0000721,-1,-1,-1,-1
1.71E+12,128,128,-1,-1,-1,-1,47.81888301,11.98062283,59.79950584,-605.0000721,-1,-1,-1,-1
1.71E+12,128,128,-1,-1,-1,-1,47.82011862,11.98942131,59.80953994,-605.0000721,-1,-1,-1,-1
1.71E+12,128,128,-1,-1,-1,-1,47.82143423,11.99812451,59.81955874,-605.0000721,-1,-1,-1,-1
1.71E+12,128,128,-1,-1,-1,-1,47.82283727,12.00672637,59.82956364,-605.0000721,-1,-1,-1,-1
1.71E+12,128,128,-1,-1,-1,-1,47.82433554,12.01522098,59.83955652,-605.0000721,-1,-1,-1,-1
1.71E+12,128,128,-1,-1,-1,-1,47.82593722,12.02360259,59.84953981,-605.0000721,-1,-1,-1,-1
1.71E+12,128,128,-1,-1,-1,-1,47.82765093,12.03186564,59.85951658,-605.0000721,-1,-1,-1,-1
1.71E+12,128,128,-1,-1,-1,-1,47.8294857,12.04000481,59.86949051,-605.0000721,-1,-1,-1,-1
1.71E+12,128,128,-1,-1,-1,-1,47.83145094,12.04801498,59.87946592,-605.0000721,-1,-1,-1,-1
1.71E+12,128,128,-1,-1,-1,-1,47.83355643,12.0558913,59.88944774,-605.0000721,-1,-1,-1,-1
1.71E+12,128,128,-1,-1,-1,-1,47.83581226,12.06362921,59.89944147,-605.0000721,-1,-1,-1,-1
1.71E+12,128,128,-1,-1,-1,-1,47.83822885,12.07122438,59.90945323,-605.0000721,-1,-1,-1,-1
1.71E+12,128,128,-1,-1,-1,-1,47.8408169,12.07867279,59.91948969,-605.0000721,-1,-1,-1,-1
1.71E+12,128,128,-1,-1,-1,-1,47.84358742,12.08597073,59.92955815,-605.0000721,-1,-1,-1,-1
1.71E+12,128,128,-1,-1,-1,-1,47.84655165,12.09311486,59.93966652,-605.0000721,-1,-1,-1,-1
1.71E+12,128,128,-1,-1,-1,-1,47.84972108,12.10010217,59.94982326,-605.0000721,-1,-1,-1,-1
1.71E+12,128,128,-1,-1,-1,-1,47.85310741,12.10692998,59.9600374,-605.0000721,-1,-1,-1,-1
1.71E+12,128,128,-1,-1,-1,-1,47.85672254,12.11359597,59.97031851,-605.0000721,-1,-1,-1,-1
1.71E+12,128,128,-1,-1,-1,-1,47.8605785,12.12009819,59.98067669,-605.0000721,-1,-1,-1,-1
1.71E+12,128,128,-1,-1,-1,-1,47.86468734,12.12643512,59.99112246,-605.0000721,-1,-1,-1,-1
1.71E+12,128,128,-1,-1,-1,-1,47.86906109,12.13260567,60.00166677,-605.0000721,-1,-1,-1,-1
1.71E+12,128,128,-1,-1,-1,-1,47.87371172,12.1386092,60.01232092,-605.0000721,-1,-1,-1,-1
1.71E+12,128,128,-1,-1,-1,-1,47.87865119,12.14444544,60.02309663,-605.0000721,-1,-1,-1,-1
1.71E+12,128,128,-1,-1,-1,-1,47.88389148,12.15011449,60.03400597,-605.0000721,-1,-1,-1,-1
1.71E+12,128,128,-1,-1,-1,-1,47.88944451,12.15561688,60.04506139,-605.0000721,-1,-1,-1,-1
1.71E+12,128,128,-1,-1,-1,-1,47.89532211,12.16095355,60.05627567,-605.0000721,-1,-1,-1,-1
1.71E+12,128,128,-1,-1,-1,-1,47.90153593,12.1661259,60.06766183,-605.0000721,-1,-1,-1,-1
1.71E+12,128,128,-1,-1,-1,-1,47.90809734,12.17113571,60.07923305,-605.0000721,-1,-1,-1,-1
1.71E+12,128,128,-1,-1,-1,-1,47.91501743,12.17598518,60.09100261,-605.0000721,-1,-1,-1,-1
1.71E+12,128,128,-1,-1,-1,-1,47.92230693,12.18067694,60.10298386,-605.0000721,-1,-1,-1,-1
1.71E+12,128,128,-1,-1,-1,-1,47.92997624,12.18521394,60.11519019,-605.0000721,-1,-1,-1,-1
1.71E+12,128,128,-1,-1,-1,-1,47.93803542,12.18959953,60.12763495,-605.0000721,-1,-1,-1,-1
1.71E+12,128,128,-1,-1,-1,-1,47.94649414,12.19383739,60.14033152,-605.0000721,-1,-1,-1,-1
1.71E+12,128,128,-1,-1,-1,-1,47.95536166,12.19793158,60.15329325,-605.0000721,-1,-1,-1,-1
1.71E+12,128,128,-1,-1,-1,-1,47.96464683,12.20188654,60.16653337,-605.0000721,-1,-1,-1,-1
1.71E+12,128,128,-1,-1,-1,-1,47.97435793,12.20570703,60.18006497,-605.0000721,-1,-1,-1,-1
1.71E+12,128,128,-1,-1,-1,-1,47.98450269,12.20939819,60.19390089,-605.0000721,-1,-1,-1,-1
1.71E+12,128,128,-1,-1,-1,-1,47.99508821,12.21296547,60.20805368,-605.0000721,-1,-1,-1,-1
1.71E+12,128,128,-1,-1,-1,-1,48.00612092,12.21641463,60.22253555,-605.0000721,-1,-1,-1,-1
1.71E+12,128,128,-1,-1,-1,-1,48.01760657,12.21975169,60.23735826,-605.0000721,-1,-1,-1,-1
1.71E+12,128,128,-1,-1,-1,-1,48.02955026,12.22298293,60.25253319,-605.0000721,-1,-1,-1,-1
1.71E+12,128,128,-1,-1,-1,-1,48.04195643,12.22611481,60.26807124,-605.0000721,-1,-1,-1,-1
1.71E+12,128,128,-1,-1,-1,-1,48.05482882,12.22915402,60.28398284,-605.0000721,-1,-1,-1,-1
1.71E+12,128,128,-1,-1,-1,-1,48.06817047,12.23210742,60.3002779,-605.0000721,-1,-1,-1,-1
1.71E+12,128,128,-1,-1,-1,-1,48.08198369,12.2349821,60.31696579,-605.0000721,-1,-1,-1,-1
1.71E+12,128,128,-1,-1,-1,-1,48.09626994,12.2377853,60.33405524,-605.0000721,-1,-1,-1,-1
1.71E+12,128,128,-1,-1,-1,-1,48.11102989,12.24052441,60.35155429,-605.0000721,-1,-1,-1,-1
1.71E+12,128,128,-1,-1,-1,-1,48.12626333,12.24320689,60.36947022,-605.0000721,-1,-1,-1,-1
1.71E+12,128,128,-1,-1,-1,-1,48.14196925,12.24584028,60.38780953,-605.0000721,-1,-1,-1,-1
1.71E+12,128,128,-1,-1,-1,-1,48.15814586,12.24843214,60.40657799,-605.0000721,-1,-1,-1,-1
1.71E+12,128,128,-1,-1,-1,-1,48.17479053,12.25099006,60.42578059,-605.0000721,-1,-1,-1,-1
1.71E+12,128,128,-1,-1,-1,-1,48.19189985,12.25352163,60.44542147,-605.0000721,-1,-1,-1,-1
1.71E+12,128,128,-1,-1,-1,-1,48.20946955,12.25603441,60.46550396,-605.0000721,-1,-1,-1,-1
1.71E+12,128,128,-1,-1,-1,-1,48.22749449,12.25853593,60.48603042,-605.0000721,-1,-1,-1,-1
1.71E+12,128,128,-1,-1,-1,-1,48.24596863,12.26103364,60.50700227,-605.0000721,-1,-1,-1,-1
1.71E+12,128,128,-1,-1,-1,-1,48.26488501,12.26353492,60.52841993,-605.0000721,-1,-1,-1,-1
1.71E+12,128,128,-1,-1,-1,-1,48.28423577,12.26604706,60.55028283,-605.0000721,-1,-1,-1,-1
1.71E+12,128,128,-1,-1,-1,-1,48.30401216,12.26857721,60.57258938,-605.0000721,-1,-1,-1,-1
1.71E+12,128,128,-1,-1,-1,-1,48.32420457,12.27113241,60.59533699,-605.0000721,-1,-1,-1,-1
1.71E+12,128,128,-1,-1,-1,-1,48.34480254,12.27371955,60.61852209,-605.0000721,-1,-1,-1,-1
1.71E+12,128,128,-1,-1,-1,-1,48.36579478,12.27634533,60.6421401,-605.0000721,-1,-1,-1,-1
1.71E+12,128,128,-1,-1,-1,-1,48.38716918,12.27901626,60.66618545,-605.0000721,-1,-1,-1,-1
1.71E+12,128,128,-1,-1,-1,-1,48.40891284,12.28173866,60.69065151,-605.0000721,-1,-1,-1,-1
1.71E+12,128,128,-1,-1,-1,-1,48.43101202,12.2845186,60.71553063,-605.0000721,-1,-1,-1,-1
1.71E+12,128,128,-1,-1,-1,-1,48.45345222,12.28736189,60.74081411,-605.0000721,-1,-1,-1,-1
1.71E+12,128,128,-1,-1,-1,-1,48.47621822,12.29027407,60.76649229,-605.0000721,-1,-1,-1,-1
1.71E+12,128,128,-1,-1,-1,-1,48.49929413,12.29326043,60.79255456,-605.0000721,-1,-1,-1,-1
1.71E+12,128,128,-1,-1,-1,-1,48.52266345,12.29632599,60.81898944,-605.0000721,-1,-1,-1,-1
1.71E+12,128,128,-1,-1,-1,-1,48.54630909,12.29947551,60.84578459,-605.0000721,-1,-1,-1,-1
1.71E+12,128,128,-1,-1,-1,-1,48.5702134,12.30271343,60.87292682,-605.0000721,-1,-1,-1,-1
1.71E+12,128,128,-1,-1,-1,-1,48.5943582,12.30604391,60.90040211,-605.0000721,-1,-1,-1,-1
1.71E+12,128,128,-1,-1,-1,-1,48.61872481,12.30947081,60.92819562,-605.0000721,-1,-1,-1,-1
1.71E+12,128,128,-1,-1,-1,-1,48.64329409,12.31299765,60.95629174,-605.0000721,-1,-1,-1,-1
1.71E+12,128,128,-1,-1,-1,-1,48.66804654,12.31662765,60.98467419,-605.0000721,-1,-1,-1,-1
1.71E+12,128,128,-1,-1,-1,-1,48.69296235,12.32036371,61.01332605,-605.0000721,-1,-1,-1,-1
1.71E+12,128,128,-1,-1,-1,-1,48.71802146,12.32420837,61.04222983,-605.0000721,-1,-1,-1,-1
1.71E+12,128,128,-1,-1,-1,-1,48.74320365,12.32816385,61.0713675,-605.0000721,-1,-1,-1,-1
1.71E+12,128,128,-1,-1,-1,-1,48.76848853,12.33223203,61.10072055,-605.0000721,-1,-1,-1,-1
1.71E+12,128,128,-1,-1,-1,-1,48.79385553,12.33641447,61.13027,-605.0000721,-1,-1,-1,-1
1.71E+12,128,128,-1,-1,-1,-1,48.81928403,12.34071242,61.15999646,-605.0000721,-1,-1,-1,-1
1.71E+12,128,128,-1,-1,-1,-1,48.84475338,12.34512677,61.18988015,-605.0000721,-1,-1,-1,-1
1.71E+12,128,128,-1,-1,-1,-1,48.87024297,12.34965803,61.219901,-605.0000721,-1,-1,-1,-1
1.71E+12,128,128,-1,-1,-1,-1,48.89573231,12.35430642,61.25003873,-605.0000721,-1,-1,-1,-1
1.71E+12,128,128,-1,-1,-1,-1,48.92120107,12.35907179,61.28027286,-605.0000721,-1,-1,-1,-1
1.71E+12,128,128,-1,-1,-1,-1,48.9466291,12.3639537,61.3105828,-605.0000721,-1,-1,-1,-1
1.71E+12,128,128,-1,-1,-1,-1,48.97199649,12.3689514,61.34094789,-605.0000721,-1,-1,-1,-1
1.71E+12,128,128,-1,-1,-1,-1,48.99728356,12.37406388,61.37134744,-605.0000721,-1,-1,-1,-1
1.71E+12,128,128,-1,-1,-1,-1,49.02247093,12.3792898,61.40176074,-605.0000721,-1,-1,-1,-1
1.71E+12,128,128,-1,-1,-1,-1,49.04753952,12.38462762,61.43216715,-605.0000721,-1,-1,-1,-1
1.71E+12,128,128,-1,-1,-1,-1,49.07247061,12.39007553,61.46254613,-605.0000721,-1,-1,-1,-1
1.71E+12,128,128,-1,-1,-1,-1,49.09724587,12.39563144,61.49287731,-605.0000721,-1,-1,-1,-1
1.71E+12,128,128,-1,-1,-1,-1,49.1218475,12.40129301,61.52314051,-605.0000721,-1,-1,-1,-1
1.71E+12,128,128,-1,-1,-1,-1,49.1462582,12.40705764,61.55331584,-605.0000721,-1,-1,-1,-1
1.71E+12,128,128,-1,-1,-1,-1,49.17046122,12.41292249,61.58338372,-605.0000721,-1,-1,-1,-1
1.71E+12,128,128,-1,-1,-1,-1,49.1944404,12.41888451,61.61332492,-605.0000721,-1,-1,-1,-1
1.71E+12,128,128,-1,-1,-1,-1,49.21818008,12.42494051,61.64312059,-605.0000721,-1,-1,-1,-1
1.71E+12,128,128,-1,-1,-1,-1,49.24166516,12.43108714,61.6727523,-605.0000721,-1,-1,-1,-1
1.71E+12,128,128,-1,-1,-1,-1,49.26488111,12.43732099,61.7022021,-605.0000721,-1,-1,-1,-1
1.71E+12,128,128,-1,-1,-1,-1,49.28781402,12.44363859,61.73145261,-605.0000721,-1,-1,-1,-1
1.71E+12,128,128,-1,-1,-1,-1,49.31045063,12.45003645,61.76048708,-605.0000721,-1,-1,-1,-1
1.71E+12,128,128,-1,-1,-1,-1,49.33277836,12.45651116,61.78928952,-605.0000721,-1,-1,-1,-1
1.71E+12,128,128,-1,-1,-1,-1,49.35478528,12.46305946,61.81784474,-605.0000721,-1,-1,-1,-1
1.71E+12,128,128,-1,-1,-1,-1,49.37646008,12.4696783,61.84613838,-605.0000721,-1,-1,-1,-1
1.71E+12,128,128,-1,-1,-1,-1,49.39779201,12.47636489,61.87415691,-605.0000721,-1,-1,-1,-1
1.71E+12,128,128,-1,-1,-1,-1,49.41877092,12.48311654,61.90188746,-605.0000721,-1,-1,-1,-1
1.71E+12,128,128,-1,-1,-1,-1,49.43938724,12.48993063,61.92931787,-605.0000721,-1,-1,-1,-1
1.71E+12,128,128,-1,-1,-1,-1,49.45963194,12.49680469,61.95643662,-605.0000721,-1,-1,-1,-1
1.71E+12,128,128,-1,-1,-1,-1,49.47949649,12.50373637,61.98323286,-605.0000721,-1,-1,-1,-1
1.71E+12,128,128,-1,-1,-1,-1,49.49897287,12.51072348,62.00969636,-605.0000721,-1,-1,-1,-1
1.71E+12,128,128,-1,-1,-1,-1,49.51805356,12.51776386,62.03581742,-605.0000721,-1,-1,-1,-1
1.71E+12,128,128,-1,-1,-1,-1,49.53673151,12.52485528,62.06158679,-605.0000721,-1,-1,-1,-1
1.71E+12,128,128,-1,-1,-1,-1,49.55500016,12.5319953,62.08699546,-605.0000721,-1,-1,-1,-1
1.71E+12,128,128,-1,-1,-1,-1,49.57285338,12.53918134,62.11203473,-605.0000721,-1,-1,-1,-1
1.71E+12,128,128,-1,-1,-1,-1,49.59028559,12.54641047,62.13669606,-605.0000721,-1,-1,-1,-1
1.71E+12,128,128,-1,-1,-1,-1,49.60729206,12.55367895,62.16097101,-605.0000721,-1,-1,-1,-1
1.71E+12,128,128,-1,-1,-1,-1,49.62386911,12.56098205,62.18485117,-605.0000721,-1,-1,-1,-1
1.71E+12,128,128,-1,-1,-1,-1,49.64001443,12.56831375,62.20832818,-605.0000721,-1,-1,-1,-1
1.71E+12,128,128,-1,-1,-1,-1,49.65572711,12.57566669,62.23139381,-605.0000721,-1,-1,-1,-1
1.71E+12,128,128,-1,-1,-1,-1,49.67100721,12.58303319,62.2540404,-605.0000721,-1,-1,-1,-1
1.71E+12,128,128,-1,-1,-1,-1,49.68585545,12.59040601,62.27626147,-605.0000721,-1,-1,-1,-1
1.71E+12,128,128,-1,-1,-1,-1,49.70027318,12.59777869,62.29805187,-605.0000721,-1,-1,-1,-1
1.71E+12,128,128,-1,-1,-1,-1,49.71426225,12.60514567,62.31940791,-605.0000721,-1,-1,-1,-1
1.71E+12,128,128,-1,-1,-1,-1,49.72782513,12.61250222,62.34032735,-605.0000721,-1,-1,-1,-1
1.71E+12,128,128,-1,-1,-1,-1,49.74096502,12.61984409,62.36080911,-605.0000721,-1,-1,-1,-1
1.71E+12,128,128,-1,-1,-1,-1,49.7536857,12.62716727,62.38085298,-605.0000721,-1,-1,-1,-1
1.71E+12,128,128,-1,-1,-1,-1,49.76599143,12.63446808,62.40045952,-605.0000721,-1,-1,-1,-1
1.71E+12,128,128,-1,-1,-1,-1,49.77788682,12.64174338,62.4196302,-605.0000721,-1,-1,-1,-1
1.71E+12,128,128,-1,-1,-1,-1,49.78937685,12.64899053,62.43836739,-605.0000721,-1,-1,-1,-1
1.71E+12,128,128,-1,-1,-1,-1,49.80046682,12.65620737,62.45667419,-605.0000721,-1,-1,-1,-1
1.71E+12,128,128,-1,-1,-1,-1,49.8111621,12.6633922,62.4745543,-605.0000721,-1,-1,-1,-1
1.71E+12,128,128,-1,-1,-1,-1,49.82146808,12.67054382,62.49201191,-605.0000721,-1,-1,-1,-1
1.71E+12,128,128,-1,-1,-1,-1,49.83139008,12.67766143,62.50905151,-605.0000721,-1,-1,-1,-1
1.71E+12,128,128,-1,-1,-1,-1,49.84093327,12.68474448,62.52567774,-605.0000721,-1,-1,-1,-1
1.71E+12,128,128,-1,-1,-1,-1,49.85010272,12.69179265,62.54189538,-605.0000721,-1,-1,-1,-1
1.71E+12,128,128,-1,-1,-1,-1,49.85890356,12.69880577,62.55770933,-605.0000721,-1,-1,-1,-1
1.71E+12,128,128,-1,-1,-1,-1,49.8673411,12.7057837,62.57312481,-605.0000721,-1,-1,-1,-1
1.71E+12,128,128,-1,-1,-1,-1,49.87542087,12.71272642,62.58814729,-605.0000721,-1,-1,-1,-1
1.71E+12,128,128,-1,-1,-1,-1,49.88314862,12.71963392,62.60278254,-605.0000721,-1,-1,-1,-1
1.71E+12,128,128,-1,-1,-1,-1,49.89053032,12.72650624,62.61703656,-605.0000721,-1,-1,-1,-1
1.71E+12,128,128,-1,-1,-1,-1,49.89757208,12.73334343,62.63091551,-605.0000721,-1,-1,-1,-1
1.71E+12,128,128,-1,-1,-1,-1,49.90428015,12.74014559,62.64442575,-605.0000721,-1,-1,-1,-1
1.71E+12,128,128,-1,-1,-1,-1,49.91066094,12.74691289,62.65757383,-605.0000721,-1,-1,-1,-1
1.71E+12,128,128,-1,-1,-1,-1,49.91672103,12.75364555,62.67036658,-605.0000721,-1,-1,-1,-1
1.71E+12,128,128,-1,-1,-1,-1,49.92246723,12.76034384,62.68281107,-605.0000721,-1,-1,-1,-1
1.71E+12,128,128,-1,-1,-1,-1,49.92790651,12.76700807,62.69491458,-605.0000721,-1,-1,-1,-1
1.71E+12,128,128,-1,-1,-1,-1,49.93304605,12.77363862,62.70668467,-605.0000721,-1,-1,-1,-1
1.71E+12,128,128,-1,-1,-1,-1,49.93789321,12.78023598,62.71812919,-605.0000721,-1,-1,-1,-1
1.71E+12,128,128,-1,-1,-1,-1,49.94245548,12.78680074,62.72925622,-605.0000721,-1,-1,-1,-1
1.71E+12,128,128,-1,-1,-1,-1,49.94674042,12.79333355,62.74007398,-605.0000721,-1,-1,-1,-1
1.71E+12,128,128,-1,-1,-1,-1,49.9507556,12.79983514,62.75059074,-605.0000721,-1,-1,-1,-1
1.71E+12,128,128,-1,-1,-1,-1,49.95450849,12.80630626,62.76081476,-605.0000721,-1,-1,-1,-1
1.71E+12,128,128,-1,-1,-1,-1,49.95800646,12.81274779,62.77075425,-605.0000721,-1,-1,-1,-1
1.71E+12,128,128,-1,-1,-1,-1,49.96125674,12.81916065,62.78041739,-605.0000721,-1,-1,-1,-1
1.71E+12,128,128,-1,-1,-1,-1,49.9642664,12.82554586,62.78981226,-605.0000721,-1,-1,-1,-1
1.71E+12,128,128,-1,-1,-1,-1,49.96704229,12.83190454,62.79894683,-605.0000721,-1,-1,-1,-1
1.71E+12,128,128,-1,-1,-1,-1,49.96959106,12.83823789,62.80782896,-605.0000721,-1,-1,-1,-1
1.71E+12,128,128,-1,-1,-1,-1,49.97191905,12.84454722,62.81646627,-605.0000721,-1,-1,-1,-1
1.71E+12,128,128,-1,-1,-1,-1,49.97403233,12.85083388,62.8248662,-605.0000721,-1,-1,-1,-1
1.71E+12,128,128,-1,-1,-1,-1,49.97593667,12.85709929,62.83303596,-605.0000721,-1,-1,-1,-1
1.71E+12,128,128,-1,-1,-1,-1,49.97763764,12.86334493,62.84098257,-605.0000721,-1,-1,-1,-1
1.71E+12,128,128,-1,-1,-1,-1,49.97914055,12.86957234,62.84871289,-605.0000721,-1,-1,-1,-1
1.71E+12,128,128,-1,-1,-1,-1,49.98045049,12.87578313,62.85623362,-605.0000721,-1,-1,-1,-1
1.71E+12,128,128,-1,-1,-1,-1,49.98157236,12.88197894,62.86355129,-605.0000721,-1,-1,-1,-1
1.71E+12,128,128,-1,-1,-1,-1,49.98251088,12.88816149,62.87067237,-605.0000721,-1,-1,-1,-1
1.71E+12,128,128,-1,-1,-1,-1,49.98327062,12.89433257,62.87760319,-605.0000721,-1,-1,-1,-1
1.71E+12,128,128,-1,-1,-1,-1,49.98385589,12.90049405,62.88434994,-605.0000721,-1,-1,-1,-1
1.71E+12,128,128,-1,-1,-1,-1,49.98427078,12.90664782,62.8909186,-605.0000721,-1,-1,-1,-1
1.71E+12,128,128,-1,-1,-1,-1,49.9845191,12.91279584,62.89731494,-605.0000721,-1,-1,-1,-1
1.71E+12,128,128,-1,-1,-1,-1,49.98460449,12.91894006,62.90354455,-605.0000721,-1,-1,-1,-1
1.71E+12,128,128,-1,-1,-1,-1,49.98453036,12.92508247,62.90961283,-605.0000721,-1,-1,-1,-1
1.71E+12,128,128,-1,-1,-1,-1,49.98429991,12.93122505,62.91552496,-605.0000721,-1,-1,-1,-1
1.71E+12,128,128,-1,-1,-1,-1,49.9839161,12.93736979,62.92128589,-605.0000721,-1,-1,-1,-1
1.71E+12,128,128,-1,-1,-1,-1,49.98338161,12.94351875,62.92690036,-605.0000721,-1,-1,-1,-1
1.71E+12,128,128,-1,-1,-1,-1,49.98269893,12.94967401,62.93237294,-605.0000721,-1,-1,-1,-1
1.71E+12,128,128,-1,-1,-1,-1,49.98187034,12.95583765,62.93770799,-605.0000721,-1,-1,-1,-1
1.71E+12,128,128,-1,-1,-1,-1,49.98089797,12.96201173,62.94290969,-605.0000721,-1,-1,-1,-1
1.71E+12,128,128,-1,-1,-1,-1,49.97978377,12.96819826,62.94798204,-605.0000721,-1,-1,-1,-1
1.71E+12,128,128,-1,-1,-1,-1,49.97852963,12.97439929,62.95292892,-605.0000721,-1,-1,-1,-1
1.71E+12,128,128,-1,-1,-1,-1,49.97713733,12.98061682,62.95775415,-605.0000721,-1,-1,-1,-1
1.71E+12,128,128,-1,-1,-1,-1,49.97560854,12.98685281,62.96246134,-605.0000721,-1,-1,-1,-1
1.71E+12,128,128,-1,-1,-1,-1,49.97394482,12.99310917,62.96705399,-605.0000721,-1,-1,-1,-1
1.71E+12,128,128,-1,-1,-1,-1,49.97214759,12.99938779,62.97153538,-605.0000721,-1,-1,-1,-1
1.71E+12,128,128,-1,-1,-1,-1,49.97021814,13.00569052,62.97590866,-605.0000721,-1,-1,-1,-1
1.71E+12,128,128,-1,-1,-1,-1,49.96815762,13.01201921,62.98017683,-605.0000721,-1,-1,-1,-1
1.71E+12,128,128,-1,-1,-1,-1,49.9659671,13.01837564,62.98434274,-605.0000721,-1,-1,-1,-1
1.71E+12,128,128,-1,-1,-1,-1,49.96364757,13.02476155,62.98840913,-605.0000721,-1,-1,-1,-1
1.71E+12,128,128,-1,-1,-1,-1,49.96120005,13.03117863,62.99237868,-605.0000721,-1,-1,-1,-1
1.71E+12,128,128,-1,-1,-1,-1,49.95862553,13.03762848,62.99625401,-605.0000721,-1,-1,-1,-1
1.71E+12,128,128,-1,-1,-1,-1,49.95592504,13.04411262,63.00003765,-605.0000721,-1,-1,-1,-1
1.71E+12,128,128,-1,-1,-1,-1,49.95309954,13.05063246,63.00373201,-605.0000721,-1,-1,-1,-1
1.71E+12,128,128,-1,-1,-1,-1,49.95014995,13.05718939,63.00733933,-605.0000721,-1,-1,-1,-1
1.71E+12,128,128,-1,-1,-1,-1,49.9470771,13.06378468,63.01086179,-605.0000721,-1,-1,-1,-1
1.71E+12,128,128,-1,-1,-1,-1,49.94388188,13.0704196,63.01430148,-605.0000721,-1,-1,-1,-1
1.71E+12,128,128,-1,-1,-1,-1,49.94056515,13.0770953,63.01766044,-605.0000721,-1,-1,-1,-1
1.71E+12,128,128,-1,-1,-1,-1,49.93712779,13.08381286,63.02094065,-605.0000721,-1,-1,-1,-1
1.71E+12,128,128,-1,-1,-1,-1,49.93357072,13.09057326,63.02414398,-605.0000721,-1,-1,-1,-1
1.71E+12,128,128,-1,-1,-1,-1,49.92989484,13.09737738,63.02727221,-605.0000721,-1,-1,-1,-1
1.71E+12,128,128,-1,-1,-1,-1,49.926101,13.10422603,63.03032703,-605.0000721,-1,-1,-1,-1
1.71E+12,128,128,-1,-1,-1,-1,49.92219004,13.11111996,63.03331,-605.0000721,-1,-1,-1,-1
1.71E+12,128,128,-1,-1,-1,-1,49.91816277,13.11805983,63.0362226,-605.0000721,-1,-1,-1,-1
1.71E+12,128,128,-1,-1,-1,-1,49.91401995,13.1250462,63.03906615,-605.0000721,-1,-1,-1,-1
1.71E+12,128,128,-1,-1,-1,-1,49.90976232,13.13207955,63.04184186,-605.0000721,-1,-1,-1,-1
1.71E+12,128,128,-1,-1,-1,-1,49.90539064,13.13916025,63.04455088,-605.0000721,-1,-1,-1,-1
1.71E+12,128,128,-1,-1,-1,-1,49.90090568,13.14628862,63.0471943,-605.0000721,-1,-1,-1,-1
1.71E+12,128,128,-1,-1,-1,-1,49.89630827,13.1534649,63.04977318,-605.0000721,-1,-1,-1,-1
1.71E+12,128,128,-1,-1,-1,-1,49.89159924,13.16068926,63.05228849,-605.0000721,-1,-1,-1,-1
1.71E+12,128,128,-1,-1,-1,-1,49.88677942,13.16796176,63.05474117,-605.0000721,-1,-1,-1,-1
1.71E+12,128,128,-1,-1,-1,-1,49.88184964,13.17528239,63.05713203,-605.0000721,-1,-1,-1,-1
1.71E+12,128,128,-1,-1,-1,-1,49.87681071,13.18265107,63.05946178,-605.0000721,-1,-1,-1,-1
1.71E+12,128,128,-1,-1,-1,-1,49.87166342,13.19006765,63.06173107,-605.0000721,-1,-1,-1,-1
1.71E+12,128,128,-1,-1,-1,-1,49.86640855,13.19753189,63.06394044,-605.0000721,-1,-1,-1,-1
1.71E+12,128,128,-1,-1,-1,-1,49.86104694,13.20504344,63.06609038,-605.0000721,-1,-1,-1,-1
1.71E+12,128,128,-1,-1,-1,-1,49.85557944,13.21260192,63.06818137,-605.0000721,-1,-1,-1,-1
1.71E+12,128,128,-1,-1,-1,-1,49.85000699,13.22020688,63.07021387,-605.0000721,-1,-1,-1,-1
1.71E+12,128,128,-1,-1,-1,-1,49.84433055,13.22785782,63.07218836,-605.0000721,-1,-1,-1,-1
1.71E+12,128,128,-1,-1,-1,-1,49.8385511,13.23555419,63.07410529,-605.0000721,-1,-1,-1,-1
1.71E+12,128,128,-1,-1,-1,-1,49.83266966,13.24329539,63.07596505,-605.0000721,-1,-1,-1,-1
1.71E+12,128,128,-1,-1,-1,-1,49.82668731,13.25108071,63.07776802,-605.0000721,-1,-1,-1,-1
1.71E+12,128,128,-1,-1,-1,-1,49.82060516,13.25890939,63.07951455,-605.0000721,-1,-1,-1,-1
1.71E+12,128,128,-1,-1,-1,-1,49.81442442,13.26678061,63.08120503,-605.0000721,-1,-1,-1,-1
1.71E+12,128,128,-1,-1,-1,-1,49.80814636,13.27469352,63.08283988,-605.0000721,-1,-1,-1,-1
1.71E+12,128,128,-1,-1,-1,-1,49.80177238,13.28264719,63.08441957,-605.0000721,-1,-1,-1,-1
1.71E+12,128,128,-1,-1,-1,-1,49.7953039,13.29064068,63.08594459,-605.0000721,-1,-1,-1,-1
1.71E+12,128,128,-1,-1,-1,-1,49.78874246,13.29867301,63.08741547,-605.0000721,-1,-1,-1,-1
1.71E+12,128,128,-1,-1,-1,-1,49.78208959,13.30674318,63.08883276,-605.0000721,-1,-1,-1,-1
1.71E+12,128,128,-1,-1,-1,-1,49.77534687,13.31485012,63.09019699,-605.0000721,-1,-1,-1,-1
1.71E+12,128,128,-1,-1,-1,-1,49.7685159,13.32299277,63.09150867,-605.0000721,-1,-1,-1,-1
1.71E+12,128,128,-1,-1,-1,-1,49.76159833,13.33117005,63.09276838,-605.0000721,-1,-1,-1,-1
1.71E+12,128,128,-1,-1,-1,-1,49.7545959,13.33938082,63.09397672,-605.0000721,-1,-1,-1,-1
1.71E+12,128,128,-1,-1,-1,-1,49.74751042,13.34762394,63.09513436,-605.0000721,-1,-1,-1,-1
1.71E+12,128,128,-1,-1,-1,-1,49.74034375,13.35589826,63.09624201,-605.0000721,-1,-1,-1,-1
1.71E+12,128,128,-1,-1,-1,-1,49.73309776,13.36420267,63.09730043,-605.0000721,-1,-1,-1,-1
1.71E+12,128,128,-1,-1,-1,-1,49.72577432,13.37253601,63.09831033,-605.0000721,-1,-1,-1,-1
1.71E+12,128,128,-1,-1,-1,-1,49.71837526,13.38089715,63.09927241,-605.0000721,-1,-1,-1,-1
1.71E+12,128,128,-1,-1,-1,-1,49.71090235,13.38928498,63.10018733,-605.0000721,-1,-1,-1,-1
1.71E+12,128,128,-1,-1,-1,-1,49.70335736,13.39769836,63.10105572,-605.0000721,-1,-1,-1,-1
1.71E+12,128,128,-1,-1,-1,-1,49.69574203,13.40613617,63.1018782,-605.0000721,-1,-1,-1,-1
1.71E+12,128,128,-1,-1,-1,-1,49.68805812,13.41459723,63.10265535,-605.0000721,-1,-1,-1,-1
1.71E+12,128,128,-1,-1,-1,-1,49.6803074,13.42308037,63.10338778,-605.0000721,-1,-1,-1,-1
1.71E+12,128,128,-1,-1,-1,-1,49.67249164,13.43158441,63.10407605,-605.0000721,-1,-1,-1,-1
1.71E+12,128,128,-1,-1,-1,-1,49.66461257,13.44010816,63.10472074,-605.0000721,-1,-1,-1,-1
1.71E+12,128,128,-1,-1,-1,-1,49.6566719,13.44865046,63.10532236,-605.0000721,-1,-1,-1,-1
1.71E+12,128,128,-1,-1,-1,-1,49.64867128,13.45721018,63.10588146,-605.0000721,-1,-1,-1,-1
1.71E+12,128,128,-1,-1,-1,-1,49.6406123,13.46578627,63.10639857,-605.0000721,-1,-1,-1,-1
1.71E+12,128,128,-1,-1,-1,-1,49.63249653,13.47437764,63.10687417,-605.0000721,-1,-1,-1,-1
1.71E+12,128,128,-1,-1,-1,-1,49.62432556,13.48298325,63.10730881,-605.0000721,-1,-1,-1,-1
1.71E+12,128,128,-1,-1,-1,-1,49.61610102,13.49160206,63.10770308,-605.0000721,-1,-1,-1,-1
1.71E+12,128,128,-1,-1,-1,-1,49.60782452,13.50023308,63.1080576,-605.0000721,-1,-1,-1,-1
1.71E+12,128,128,-1,-1,-1,-1,49.59949764,13.50887537,63.10837301,-605.0000721,-1,-1,-1,-1
1.71E+12,128,128,-1,-1,-1,-1,49.59112186,13.51752805,63.10864992,-605.0000721,-1,-1,-1,-1
1.71E+12,128,128,-1,-1,-1,-1,49.58269865,13.52619027,63.10888892,-605.0000721,-1,-1,-1,-1
1.71E+12,128,128,-1,-1,-1,-1,49.57422938,13.53486123,63.10909061,-605.0000721,-1,-1,-1,-1
1.71E+12,128,128,-1,-1,-1,-1,49.56571541,13.5435402,63.10925562,-605.0000721,-1,-1,-1,-1
1.71E+12,128,128,-1,-1,-1,-1,49.55715812,13.55222647,63.10938459,-605.0000721,-1,-1,-1,-1
1.71E+12,128,128,-1,-1,-1,-1,49.54855886,13.56091938,63.10947824,-605.0000721,-1,-1,-1,-1
1.71E+12,128,128,-1,-1,-1,-1,49.53991903,13.56961831,63.10953735,-605.0000721,-1,-1,-1,-1
1.71E+12,128,128,-1,-1,-1,-1,49.53124005,13.57832268,63.10956273,-605.0000721,-1,-1,-1,-1
1.71E+12,128,128,-1,-1,-1,-1,49.52252335,13.58703193,63.10955528,-605.0000721,-1,-1,-1,-1
1.71E+12,128,128,-1,-1,-1,-1,49.51377035,13.59574555,63.1095159,-605.0000721,-1,-1,-1,-1
1.71E+12,128,128,-1,-1,-1,-1,49.50498238,13.60446307,63.10944545,-605.0000721,-1,-1,-1,-1
1.71E+12,128,128,-1,-1,-1,-1,49.49616074,13.61318401,63.10934475,-605.0000721,-1,-1,-1,-1
1.71E+12,128,128,-1,-1,-1,-1,49.48730671,13.6219079,63.10921461,-605.0000721,-1,-1,-1,-1
1.71E+12,128,128,-1,-1,-1,-1,49.4784216,13.63063428,63.10905588,-605.0000721,-1,-1,-1,-1
1.71E+12,128,128,-1,-1,-1,-1,49.46950675,13.63936274,63.10886948,-605.0000721,-1,-1,-1,-1
1.71E+12,128,128,-1,-1,-1,-1,49.46056358,13.64809284,63.10865642,-605.0000721,-1,-1,-1,-1
1.71E+12,128,128,-1,-1,-1,-1,49.45159353,13.65682423,63.10841776,-605.0000721,-1,-1,-1,-1
1.71E+12,128,128,-1,-1,-1,-1,49.44259802,13.66555656,63.10815458,-605.0000721,-1,-1,-1,-1
1.71E+12,128,128,-1,-1,-1,-1,49.43357847,13.67428954,63.107868,-605.0000721,-1,-1,-1,-1
1.71E+12,128,128,-1,-1,-1,-1,49.42453623,13.68302288,63.10755911,-605.0000721,-1,-1,-1,-1
1.71E+12,128,128,-1,-1,-1,-1,49.41547269,13.69175633,63.10722901,-605.0000721,-1,-1,-1,-1
1.71E+12,128,128,-1,-1,-1,-1,49.40638919,13.70048963,63.10687881,-605.0000721,-1,-1,-1,-1
1.71E+12,128,128,-1,-1,-1,-1,49.39728712,13.70922253,63.10650965,-605.0000721,-1,-1,-1,-1
1.71E+12,128,128,-1,-1,-1,-1,49.3881679,13.71795479,63.10612269,-605.0000721,-1,-1,-1,-1
1.71E+12,128,128,-1,-1,-1,-1,49.37903296,13.72668617,63.10571914,-605.0000721,-1,-1,-1,-1
1.71E+12,128,128,-1,-1,-1,-1,49.36988375,13.73541644,63.10530019,-605.0000721,-1,-1,-1,-1
1.71E+12,128,128,-1,-1,-1,-1,49.36072169,13.74414535,63.10486704,-605.0000721,-1,-1,-1,-1
1.71E+12,128,128,-1,-1,-1,-1,49.35154817,13.7528727,63.10442087,-605.0000721,-1,-1,-1,-1
1.71E+12,128,128,-1,-1,-1,-1,49.34236456,13.76159826,63.10396283,-605.0000721,-1,-1,-1,-1
1.71E+12,128,128,-1,-1,-1,-1,49.33317223,13.77032182,63.10349405,-605.0000721,-1,-1,-1,-1
1.71E+12,128,128,-1,-1,-1,-1,49.32397255,13.77904314,63.10301569,-605.0000721,-1,-1,-1,-1
1.71E+12,128,128,-1,-1,-1,-1,49.31476693,13.78776197,63.1025289,-605.0000721,-1,-1,-1,-1
1.71E+12,128,128,-1,-1,-1,-1,49.30555678,13.79647809,63.10203487,-605.0000721,-1,-1,-1,-1
1.71E+12,128,128,-1,-1,-1,-1,49.29634354,13.80519124,63.10153478,-605.0000721,-1,-1,-1,-1
1.71E+12,128,128,-1,-1,-1,-1,49.28712862,13.81390118,63.1010298,-605.0000721,-1,-1,-1,-1
1.71E+12,128,128,-1,-1,-1,-1,49.27791343,13.82260765,63.10052108,-605.0000721,-1,-1,-1,-1
1.71E+12,128,128,-1,-1,-1,-1,49.26869934,13.83131039,63.10000972,-605.0000721,-1,-1,-1,-1
1.71E+12,128,128,-1,-1,-1,-1,49.25948767,13.84000908,63.09949675,-605.0000721,-1,-1,-1,-1
1.71E+12,128,128,-1,-1,-1,-1,49.25027978,13.84870338,63.09898316,-605.0000721,-1,-1,-1,-1
1.71E+12,128,128,-1,-1,-1,-1,49.24107702,13.85739293,63.09846995,-605.0000721,-1,-1,-1,-1
1.71E+12,128,128,-1,-1,-1,-1,49.23188081,13.86607732,63.09795812,-605.0000721,-1,-1,-1,-1
1.71E+12,128,128,-1,-1,-1,-1,49.22269257,13.87475614,63.09744871,-605.0000721,-1,-1,-1,-1
1.71E+12,128,128,-1,-1,-1,-1,49.21351374,13.88342895,63.0969427,-605.0000721,-1,-1,-1,-1
1.71E+12,128,128,-1,-1,-1,-1,49.20434575,13.89209529,63.09644104,-605.0000721,-1,-1,-1,-1
1.71E+12,128,128,-1,-1,-1,-1,49.19518997,13.9007547,63.09594468,-605.0000721,-1,-1,-1,-1
1.71E+12,128,128,-1,-1,-1,-1,49.18604777,13.9094067,63.09545447,-605.0000721,-1,-1,-1,-1
1.71E+12,128,128,-1,-1,-1,-1,49.17692053,13.91805074,63.09497126,-605.0000721,-1,-1,-1,-1
1.71E+12,128,128,-1,-1,-1,-1,49.16780964,13.9266862,63.09449584,-605.0000721,-1,-1,-1,-1
1.71E+12,128,128,-1,-1,-1,-1,49.15871653,13.93531245,63.09402897,-605.0000721,-1,-1,-1,-1
1.71E+12,128,128,-1,-1,-1,-1,49.14964269,13.94392877,63.09357146,-605.0000721,-1,-1,-1,-1
1.71E+12,128,128,-1,-1,-1,-1,49.14058962,13.95253445,63.09312407,-605.0000721,-1,-1,-1,-1
1.71E+12,128,128,-1,-1,-1,-1,49.13155883,13.96112872,63.09268754,-605.0000721,-1,-1,-1,-1
1.71E+12,128,128,-1,-1,-1,-1,49.12255179,13.96971082,63.09226261,-605.0000721,-1,-1,-1,-1
1.71E+12,128,128,-1,-1,-1,-1,49.11356996,13.97827999,63.09184995,-605.0000721,-1,-1,-1,-1
1.71E+12,128,128,-1,-1,-1,-1,49.10461477,13.98683538,63.09145015,-605.0000721,-1,-1,-1,-1
1.71E+12,128,128,-1,-1,-1,-1,49.09568764,13.99537617,63.0910638,-605.0000721,-1,-1,-1,-1
1.71E+12,128,128,-1,-1,-1,-1,49.08678998,14.00390149,63.09069147,-605.0000721,-1,-1,-1,-1
1.71E+12,128,128,-1,-1,-1,-1,49.07792323,14.01241049,63.09033373,-605.0000721,-1,-1,-1,-1
1.71E+12,128,128,-1,-1,-1,-1,49.06908884,14.02090228,63.08999112,-605.0000721,-1,-1,-1,-1
1.71E+12,128,128,-1,-1,-1,-1,49.06028821,14.02937596,63.08966417,-605.0000721,-1,-1,-1,-1
1.71E+12,128,128,-1,-1,-1,-1,49.05152271,14.03783063,63.08935334,-605.0000721,-1,-1,-1,-1
1.71E+12,128,128,-1,-1,-1,-1,49.04279369,14.04626536,63.08905905,-605.0000721,-1,-1,-1,-1
1.71E+12,128,128,-1,-1,-1,-1,49.03410242,14.05467922,63.08878164,-605.0000721,-1,-1,-1,-1
1.71E+12,128,128,-1,-1,-1,-1,49.0254501,14.06307124,63.08852134,-605.0000721,-1,-1,-1,-1
1.71E+12,128,128,-1,-1,-1,-1,49.0168379,14.07144042,63.08827832,-605.0000721,-1,-1,-1,-1
1.71E+12,128,128,-1,-1,-1,-1,49.00826702,14.0797857,63.08805272,-605.0000721,-1,-1,-1,-1
1.71E+12,128,128,-1,-1,-1,-1,48.99973865,14.08810608,63.08784472,-605.0000721,-1,-1,-1,-1
1.71E+12,128,128,-1,-1,-1,-1,48.99125399,14.09640052,63.0876545,-605.0000721,-1,-1,-1,-1
1.71E+12,128,128,-1,-1,-1,-1,48.9828142,14.10466799,63.08748219,-605.0000721,-1,-1,-1,-1
1.71E+12,128,128,-1,-1,-1,-1,48.97442041,14.11290748,63.08732789,-605.0000721,-1,-1,-1,-1
1.71E+12,128,128,-1,-1,-1,-1,48.96607361,14.12111799,63.08719159,-605.0000721,-1,-1,-1,-1
1.71E+12,128,128,-1,-1,-1,-1,48.95777474,14.12929848,63.08707322,-605.0000721,-1,-1,-1,-1
1.71E+12,128,128,-1,-1,-1,-1,48.94952465,14.13744794,63.08697259,-605.0000721,-1,-1,-1,-1
1.71E+12,128,128,-1,-1,-1,-1,48.94132414,14.14556532,63.08688946,-605.0000721,-1,-1,-1,-1
1.71E+12,128,128,-1,-1,-1,-1,48.93317397,14.15364962,63.08682359,-605.0000721,-1,-1,-1,-1
1.71E+12,128,128,-1,-1,-1,-1,48.92507489,14.16169986,63.08677475,-605.0000721,-1,-1,-1,-1
1.71E+12,128,128,-1,-1,-1,-1,48.91702756,14.16971508,63.08674264,-605.0000721,-1,-1,-1,-1
1.71E+12,128,128,-1,-1,-1,-1,48.90903257,14.17769439,63.08672696,-605.0000721,-1,-1,-1,-1
1.71E+12,128,128,-1,-1,-1,-1,48.90109038,14.1856369,63.08672727,-605.0000721,-1,-1,-1,-1
1.71E+12,128,128,-1,-1,-1,-1,48.89320134,14.19354178,63.08674312,-605.0000721,-1,-1,-1,-1
1.71E+12,128,128,-1,-1,-1,-1,48.88536573,14.2014082,63.08677393,-605.0000721,-1,-1,-1,-1
1.71E+12,128,128,-1,-1,-1,-1,48.87758376,14.20923532,63.08681908,-605.0000721,-1,-1,-1,-1
1.71E+12,128,128,-1,-1,-1,-1,48.86985559,14.21702231,63.0868779,-605.0000721,-1,-1,-1,-1
1.71E+12,128,128,-1,-1,-1,-1,48.86218134,14.22476837,63.08694971,-605.0000721,-1,-1,-1,-1
1.71E+12,128,128,-1,-1,-1,-1,48.85456108,14.23247265,63.08703373,-605.0000721,-1,-1,-1,-1
1.71E+12,128,128,-1,-1,-1,-1,48.84699483,14.24013424,63.08712907,-605.0000721,-1,-1,-1,-1
1.71E+12,128,128,-1,-1,-1,-1,48.83948256,14.24775211,63.08723467,-605.0000721,-1,-1,-1,-1
1.71E+12,128,128,-1,-1,-1,-1,48.83202423,14.25532499,63.08734922,-605.0000721,-1,-1,-1,-1
1.71E+12,128,128,-1,-1,-1,-1,48.82461985,14.26285135,63.0874712,-605.0000721,-1,-1,-1,-1
1.71E+12,128,128,-1,-1,-1,-1,48.81726951,14.27032951,63.08759902,-605.0000721,-1,-1,-1,-1
1.71E+12,128,128,-1,-1,-1,-1,48.80997336,14.27775775,63.08773111,-605.0000721,-1,-1,-1,-1
1.71E+12,128,128,-1,-1,-1,-1,48.80273174,14.28513428,63.08786602,-605.0000721,-1,-1,-1,-1
1.71E+12,128,128,-1,-1,-1,-1,48.79554518,14.29245722,63.0880024,-605.0000721,-1,-1,-1,-1
1.71E+12,128,128,-1,-1,-1,-1,48.78841441,14.29972463,63.08813904,-605.0000721,-1,-1,-1,-1
1.71E+12,128,128,-1,-1,-1,-1,48.78134037,14.30693459,63.08827496,-605.0000721,-1,-1,-1,-1
1.71E+12,128,128,-1,-1,-1,-1,48.77432415,14.31408534,63.08840949,-605.0000721,-1,-1,-1,-1
1.71E+12,128,128,-1,-1,-1,-1,48.76736702,14.32117544,63.08854245,-605.0000721,-1,-1,-1,-1
1.71E+12,128,128,-1,-1,-1,-1,48.7604704,14.32820373,63.08867413,-605.0000721,-1,-1,-1,-1
1.71E+12,128,128,-1,-1,-1,-1,48.75363589,14.33516943,63.08880533,-605.0000721,-1,-1,-1,-1
1.71E+12,128,128,-1,-1,-1,-1,48.7468649,14.34207271,63.08893761,-605.0000721,-1,-1,-1,-1
1.71E+12,128,128,-1,-1,-1,-1,48.74015847,14.34891489,63.08907337,-605.0000721,-1,-1,-1,-1
1.71E+12,128,128,-1,-1,-1,-1,48.73351706,14.35569875,63.0892158,-605.0000721,-1,-1,-1,-1
1.71E+12,128,128,-1,-1,-1,-1,48.72694032,14.36242864,63.08936895,-605.0000721,-1,-1,-1,-1
1.71E+12,128,128,-1,-1,-1,-1,48.72042739,14.36910981,63.08953721,-605.0000721,-1,-1,-1,-1
1.71E+12,128,128,-1,-1,-1,-1,48.7139772,14.37574749,63.08972469,-605.0000721,-1,-1,-1,-1
1.71E+12,128,128,-1,-1,-1,-1,48.70758852,14.38234662,63.08993515,-605.0000721,-1,-1,-1,-1
1.71E+12,128,128,-1,-1,-1,-1,48.70126011,14.38891188,63.09017199,-605.0000721,-1,-1,-1,-1
1.71E+12,128,128,-1,-1,-1,-1,48.69499066,14.39544737,63.09043804,-605.0000721,-1,-1,-1,-1
1.71E+12,128,128,-1,-1,-1,-1,48.68877878,14.40195678,63.09073556,-605.0000721,-1,-1,-1,-1
1.71E+12,128,128,-1,-1,-1,-1,48.68262281,14.4084437,63.0910665,-605.0000721,-1,-1,-1,-1
1.71E+12,128,128,-1,-1,-1,-1,48.67652096,14.41491169,63.09143265,-605.0000721,-1,-1,-1,-1
1.71E+12,128,128,-1,-1,-1,-1,48.67047149,14.4213641,63.09183558,-605.0000721,-1,-1,-1,-1
1.71E+12,128,128,-1,-1,-1,-1,48.66447267,14.4278041,63.09227676,-605.0000721,-1,-1,-1,-1
1.71E+12,128,128,-1,-1,-1,-1,48.65852281,14.4342347,63.09275751,-605.0000721,-1,-1,-1,-1
1.71E+12,128,128,-1,-1,-1,-1,48.65262035,14.44065872,63.09327906,-605.0000721,-1,-1,-1,-1
1.71E+12,128,128,-1,-1,-1,-1,48.64676393,14.44707882,63.09384275,-605.0000721,-1,-1,-1,-1
1.71E+12,128,128,-1,-1,-1,-1,48.64095244,14.45349758,63.09445002,-605.0000721,-1,-1,-1,-1
1.71E+12,128,128,-1,-1,-1,-1,48.63518509,14.45991751,63.0951026,-605.0000721,-1,-1,-1,-1
1.71E+12,128,128,-1,-1,-1,-1,48.62946141,14.46634115,63.09580256,-605.0000721,-1,-1,-1,-1
1.71E+12,128,128,-1,-1,-1,-1,48.62378111,14.47277108,63.09655219,-605.0000721,-1,-1,-1,-1
1.71E+12,128,128,-1,-1,-1,-1,48.61814393,14.47921007,63.097354,-605.0000721,-1,-1,-1,-1
1.71E+12,128,128,-1,-1,-1,-1,48.61254952,14.48566104,63.09821056,-605.0000721,-1,-1,-1,-1
1.71E+12,128,128,-1,-1,-1,-1,48.60699749,14.49212704,63.09912453,-605.0000721,-1,-1,-1,-1
1.71E+12,128,128,-1,-1,-1,-1,48.6014874,14.49861123,63.10009863,-605.0000721,-1,-1,-1,-1
1.71E+12,128,128,-1,-1,-1,-1,48.59601875,14.50511691,63.10113566,-605.0000721,-1,-1,-1,-1
1.71E+12,128,128,-1,-1,-1,-1,48.59059098,14.51164749,63.10223847,-605.0000721,-1,-1,-1,-1
1.71E+12,128,128,-1,-1,-1,-1,48.58520348,14.51820655,63.10341003,-605.0000721,-1,-1,-1,-1
1.71E+12,128,128,-1,-1,-1,-1,48.5798556,14.52479774,63.10465334,-605.0000721,-1,-1,-1,-1
1.71E+12,128,128,-1,-1,-1,-1,48.57454659,14.53142482,63.10597141,-605.0000721,-1,-1,-1,-1
1.71E+12,128,128,-1,-1,-1,-1,48.56927559,14.53809163,63.10736721,-605.0000721,-1,-1,-1,-1
1.71E+12,128,128,-1,-1,-1,-1,48.56404166,14.54480207,63.10884372,-605.0000721,-1,-1,-1,-1
1.71E+12,128,128,-1,-1,-1,-1,48.55884381,14.55156006,63.11040387,-605.0000721,-1,-1,-1,-1
1.71E+12,128,128,-1,-1,-1,-1,48.55368101,14.55836949,63.1120505,-605.0000721,-1,-1,-1,-1
1.71E+12,128,128,-1,-1,-1,-1,48.54855225,14.56523418,63.11378643,-605.0000721,-1,-1,-1,-1
1.71E+12,128,128,-1,-1,-1,-1,48.54345654,14.57215787,63.11561442,-605.0000721,-1,-1,-1,-1
1.71E+12,128,128,-1,-1,-1,-1,48.5383929,14.5791442,63.1175371,-605.0000721,-1,-1,-1,-1
1.71E+12,128,128,-1,-1,-1,-1,48.53336031,14.58619669,63.11955701,-605.0000721,-1,-1,-1,-1
1.71E+12,128,128,-1,-1,-1,-1,48.52835772,14.59331879,63.12167651,-605.0000721,-1,-1,-1,-1
1.71E+12,128,128,-1,-1,-1,-1,48.52338398,14.6005138,63.12389778,-605.0000721,-1,-1,-1,-1
1.71E+12,128,128,-1,-1,-1,-1,48.51843792,14.60778489,63.12622281,-605.0000721,-1,-1,-1,-1
1.71E+12,128,128,-1,-1,-1,-1,48.51351837,14.61513503,63.12865339,-605.0000721,-1,-1,-1,-1
1.71E+12,128,128,-1,-1,-1,-1,48.50862419,14.62256698,63.13119116,-605.0000721,-1,-1,-1,-1
1.71E+12,128,128,-1,-1,-1,-1,48.50375431,14.63008331,63.13383761,-605.0000721,-1,-1,-1,-1
1.71E+12,128,128,-1,-1,-1,-1,48.49890769,14.63768635,63.13659403,-605.0000721,-1,-1,-1,-1
1.71E+12,128,128,-1,-1,-1,-1,48.49408329,14.6453782,63.1394615,-605.0000721,-1,-1,-1,-1
1.71E+12,128,128,-1,-1,-1,-1,48.48928011,14.65316072,63.14244083,-605.0000721,-1,-1,-1,-1
1.71E+12,128,128,-1,-1,-1,-1,48.48449712,14.66103548,63.14553261,-605.0000721,-1,-1,-1,-1
1.71E+12,128,128,-1,-1,-1,-1,48.47973331,14.66900383,63.14873714,-605.0000721,-1,-1,-1,-1
1.71E+12,128,128,-1,-1,-1,-1,48.4749877,14.67706678,63.15205447,-605.0000721,-1,-1,-1,-1
1.71E+12,128,128,-1,-1,-1,-1,48.47025932,14.68522504,63.15548436,-605.0000721,-1,-1,-1,-1
1.71E+12,128,128,-1,-1,-1,-1,48.4655473,14.69347898,63.15902628,-605.0000721,-1,-1,-1,-1
1.71E+12,128,128,-1,-1,-1,-1,48.46085082,14.70182868,63.1626795,-605.0000721,-1,-1,-1,-1
1.71E+12,128,128,-1,-1,-1,-1,48.45616914,14.71027392,63.16644306,-605.0000721,-1,-1,-1,-1
1.71E+12,128,128,-1,-1,-1,-1,48.45150159,14.71881413,63.17031572,-605.0000721,-1,-1,-1,-1
1.71E+12,128,128,-1,-1,-1,-1,48.44684755,14.7274484,63.17429595,-605.0000721,-1,-1,-1,-1
1.71E+12,128,128,-1,-1,-1,-1,48.4422064,14.73617548,63.17838188,-605.0000721,-1,-1,-1,-1
1.71E+12,128,128,-1,-1,-1,-1,48.43757758,14.74499377,63.18257135,-605.0000721,-1,-1,-1,-1
1.71E+12,128,128,-1,-1,-1,-1,48.43296059,14.75390133,63.18686192,-605.0000721,-1,-1,-1,-1
1.71E+12,128,128,-1,-1,-1,-1,48.42835504,14.76289589,63.19125094,-605.0000721,-1,-1,-1,-1
1.71E+12,128,128,-1,-1,-1,-1,48.42376067,14.77197481,63.19573548,-605.0000721,-1,-1,-1,-1
1.71E+12,128,128,-1,-1,-1,-1,48.41917733,14.78113511,63.20031244,-605.0000721,-1,-1,-1,-1
1.71E+12,128,128,-1,-1,-1,-1,48.41460496,14.7903735,63.20497846,-605.0000721,-1,-1,-1,-1
1.71E+12,128,128,-1,-1,-1,-1,48.41004358,14.79968641,63.20972999,-605.0000721,-1,-1,-1,-1
1.71E+12,128,128,-1,-1,-1,-1,48.40549329,14.80906991,63.2145632,-605.0000721,-1,-1,-1,-1
1.71E+12,128,128,-1,-1,-1,-1,48.40095429,14.81851973,63.21947403,-605.0000721,-1,-1,-1,-1
1.71E+12,128,128,-1,-1,-1,-1,48.39642687,14.82803131,63.22445817,-605.0000721,-1,-1,-1,-1
1.71E+12,128,128,-1,-1,-1,-1,48.39191141,14.83759974,63.22951115,-605.0000721,-1,-1,-1,-1
1.71E+12,128,128,-1,-1,-1,-1,48.38740846,14.84721987,63.23462833,-605.0000721,-1,-1,-1,-1
1.71E+12,128,128,-1,-1,-1,-1,48.38291865,14.85688631,63.23980496,-605.0000721,-1,-1,-1,-1
1.71E+12,128,128,-1,-1,-1,-1,48.37844274,14.8665934,63.24503615,-605.0000721,-1,-1,-1,-1
1.71E+12,128,128,-1,-1,-1,-1,48.3739816,14.8763353,63.2503169,-605.0000721,-1,-1,-1,-1
1.71E+12,128,128,-1,-1,-1,-1,48.36953621,14.88610592,63.25564213,-605.0000721,-1,-1,-1,-1
1.71E+12,128,128,-1,-1,-1,-1,48.36510766,14.89589898,63.26100664,-605.0000721,-1,-1,-1,-1
1.71E+12,128,128,-1,-1,-1,-1,48.36069712,14.905708,63.26640512,-605.0000721,-1,-1,-1,-1
1.71E+12,128,128,-1,-1,-1,-1,48.35630588,14.91552633,63.2718322,-605.0000721,-1,-1,-1,-1
1.71E+12,128,128,-1,-1,-1,-1,48.35193531,14.92534719,63.2772825,-605.0000721,-1,-1,-1,-1
1.71E+12,128,128,-1,-1,-1,-1,48.34758698,14.93516367,63.28275065,-605.0000721,-1,-1,-1,-1
1.71E+12,128,128,-1,-1,-1,-1,48.34326258,14.94496875,63.28823133,-605.0000721,-1,-1,-1,-1
1.71E+12,128,128,-1,-1,-1,-1,48.33896395,14.95475532,63.29371927,-605.0000721,-1,-1,-1,-1
1.71E+12,128,128,-1,-1,-1,-1,48.33469296,14.96451628,63.29920924,-605.0000721,-1,-1,-1,-1
1.71E+12,128,128,-1,-1,-1,-1,48.3304516,14.97424443,63.30469603,-605.0000721,-1,-1,-1,-1
1.71E+12,128,128,-1,-1,-1,-1,48.32624191,14.98393256,63.31017447,-605.0000721,-1,-1,-1,-1
1.71E+12,128,128,-1,-1,-1,-1,48.322066,14.99357345,63.31563945,-605.0000721,-1,-1,-1,-1
1.71E+12,128,128,-1,-1,-1,-1,48.31792609,15.00315987,63.32108597,-605.0000721,-1,-1,-1,-1
1.71E+12,128,128,-1,-1,-1,-1,48.31382447,15.01268468,63.32650915,-605.0000721,-1,-1,-1,-1
1.71E+12,128,128,-1,-1,-1,-1,48.30976353,15.02214078,63.33190431,-605.0000721,-1,-1,-1,-1
1.71E+12,128,128,-1,-1,-1,-1,48.30574573,15.0315212,63.33726693,-605.0000721,-1,-1,-1,-1
1.71E+12,128,128,-1,-1,-1,-1,48.30177356,15.04081908,63.34259265,-605.0000721,-1,-1,-1,-1
1.71E+12,128,128,-1,-1,-1,-1,48.2978496,15.05002772,63.34787732,-605.0000721,-1,-1,-1,-1
1.71E+12,128,128,-1,-1,-1,-1,48.29397643,15.05914059,63.35311702,-605.0000721,-1,-1,-1,-1
1.71E+12,128,128,-1,-1,-1,-1,48.29015664,15.06815141,63.35830805,-605.0000721,-1,-1,-1,-1
1.71E+12,128,128,-1,-1,-1,-1,48.28639281,15.0770541,63.36344691,-605.0000721,-1,-1,-1,-1
1.71E+12,128,128,-1,-1,-1,-1,48.28268751,15.08584282,63.36853033,-605.0000721,-1,-1,-1,-1
1.71E+12,128,128,-1,-1,-1,-1,48.27904335,15.09451193,63.37355528,-605.0000721,-1,-1,-1,-1
1.71E+12,128,128,-1,-1,-1,-1,48.27546294,15.10305603,63.37851897,-605.0000721,-1,-1,-1,-1
1.71E+12,128,128,-1,-1,-1,-1,48.27194883,15.11147002,63.38341885,-605.0000721,-1,-1,-1,-1
1.71E+12,128,128,-1,-1,-1,-1,48.26850353,15.11974907,63.3882526,-605.0000721,-1,-1,-1,-1
1.71E+12,128,128,-1,-1,-1,-1,48.26512943,15.12788868,63.39301812,-605.0000721,-1,-1,-1,-1
1.71E+12,128,128,-1,-1,-1,-1,48.26182885,15.13588468,63.39771353,-605.0000721,-1,-1,-1,-1
1.71E+12,128,128,-1,-1,-1,-1,48.25860403,15.14373324,63.40233726,-605.0000721,-1,-1,-1,-1
1.71E+12,128,128,-1,-1,-1,-1,48.25545719,15.15143088,63.40688807,-605.0000721,-1,-1,-1,-1
1.71E+12,128,128,-1,-1,-1,-1,48.25239052,15.1589745,63.41136503,-605.0000721,-1,-1,-1,-1
1.71E+12,128,128,-1,-1,-1,-1,48.24940621,15.16636135,63.41576756,-605.0000721,-1,-1,-1,-1
1.71E+12,128,128,-1,-1,-1,-1,48.24650634,15.17358909,63.42009542,-605.0000721,-1,-1,-1,-1
1.71E+12,128,128,-1,-1,-1,-1,48.24369293,15.18065577,63.4243487,-605.0000721,-1,-1,-1,-1
1.71E+12,128,128,-1,-1,-1,-1,48.2409679,15.1875599,63.42852781,-605.0000721,-1,-1,-1,-1
1.71E+12,128,128,-1,-1,-1,-1,48.23833307,15.19430038,63.43263345,-605.0000721,-1,-1,-1,-1
1.71E+12,128,128,-1,-1,-1,-1,48.23579009,15.20087652,63.43666661,-605.0000721,-1,-1,-1,-1
1.71E+12,128,128,-1,-1,-1,-1,48.23334046,15.20728811,63.44062856,-605.0000721,-1,-1,-1,-1
1.71E+12,128,128,-1,-1,-1,-1,48.23098556,15.21353532,63.44452088,-605.0000721,-1,-1,-1,-1
1.71E+12,128,128,-1,-1,-1,-1,48.2287267,15.21961879,63.44834549,-605.0000721,-1,-1,-1,-1
1.71E+12,128,128,-1,-1,-1,-1,48.22656507,15.22553964,63.45210471,-605.0000721,-1,-1,-1,-1
1.71E+12,128,128,-1,-1,-1,-1,48.22450175,15.23129942,63.45580117,-605.0000721,-1,-1,-1,-1
1.71E+12,128,128,-1,-1,-1,-1,48.22253768,15.23690011,63.45943779,-605.0000721,-1,-1,-1,-1
1.71E+12,128,128,-1,-1,-1,-1,48.22067361,15.24234414,63.46301775,-605.0000721,-1,-1,-1,-1
1.71E+12,128,128,-1,-1,-1,-1,48.21891011,15.24763437,63.46654448,-605.0000721,-1,-1,-1,-1
1.71E+12,128,128,-1,-1,-1,-1,48.21724755,15.25277403,63.47002158,-605.0000721,-1,-1,-1,-1
1.71E+12,128,128,-1,-1,-1,-1,48.21568614,15.25776673,63.47345287,-605.0000721,-1,-1,-1,-1
1.71E+12,128,128,-1,-1,-1,-1,48.21422595,15.26261644,63.47684239,-605.0000721,-1,-1,-1,-1
1.71E+12,128,128,-1,-1,-1,-1,48.21286689,15.2673275,63.48019439,-605.0000721,-1,-1,-1,-1
1.71E+12,128,128,-1,-1,-1,-1,48.21160873,15.27190459,63.48351332,-605.0000721,-1,-1,-1,-1
1.71E+12,128,128,-1,-1,-1,-1,48.21045107,15.27635274,63.4868038,-605.0000721,-1,-1,-1,-1
1.71E+12,128,128,-1,-1,-1,-1,48.20939332,15.28067728,63.4900706,-605.0000721,-1,-1,-1,-1
1.71E+12,128,128,-1,-1,-1,-1,48.20843468,15.28488387,63.49331856,-605.0000721,-1,-1,-1,-1
1.71E+12,128,128,-1,-1,-1,-1,48.20757414,15.28897849,63.49655263,-605.0000721,-1,-1,-1,-1
1.71E+12,128,128,-1,-1,-1,-1,48.20681046,15.29296737,63.49977783,-605.0000721,-1,-1,-1,-1
1.71E+12,128,128,-1,-1,-1,-1,48.20614224,15.29685699,63.50299922,-605.0000721,-1,-1,-1,-1
1.71E+12,128,128,-1,-1,-1,-1,48.20556787,15.30065406,63.50622193,-605.0000721,-1,-1,-1,-1
1.71E+12,128,128,-1,-1,-1,-1,48.20508558,15.30436552,63.5094511,-605.0000721,-1,-1,-1,-1
1.71E+12,128,128,-1,-1,-1,-1,48.20469343,15.30799849,63.51269192,-605.0000721,-1,-1,-1,-1
1.71E+12,128,128,-1,-1,-1,-1,48.20438925,15.31156032,63.51594957,-605.0000721,-1,-1,-1,-1
1.71E+12,128,128,-1,-1,-1,-1,48.20417073,15.31505846,63.51922919,-605.0000721,-1,-1,-1,-1
1.71E+12,128,128,-1,-1,-1,-1,48.2040353,15.31850053,63.52253583,-605.0000721,-1,-1,-1,-1
1.71E+12,128,128,-1,-1,-1,-1,48.20398026,15.3218942,63.52587447,-605.0000721,-1,-1,-1,-1
1.71E+12,128,128,-1,-1,-1,-1,48.20400271,15.32524723,63.52924993,-605.0000721,-1,-1,-1,-1
1.71E+12,128,128,-1,-1,-1,-1,48.2040996,15.32856737,63.53266697,-605.0000721,-1,-1,-1,-1
1.71E+12,128,128,-1,-1,-1,-1,48.20426776,15.33186243,63.5361302,-605.0000721,-1,-1,-1,-1
1.71E+12,128,128,-1,-1,-1,-1,48.2045039,15.33514023,63.53964413,-605.0000721,-1,-1,-1,-1
1.71E+12,128,128,-1,-1,-1,-1,48.20480456,15.33840855,63.54321311,-605.0000721,-1,-1,-1,-1
1.71E+12,128,128,-1,-1,-1,-1,48.20516615,15.34167514,63.54684129,-605.0000721,-1,-1,-1,-1
1.71E+12,128,128,-1,-1,-1,-1,48.20558491,15.34494763,63.55053254,-605.0000721,-1,-1,-1,-1
1.71E+12,128,128,-1,-1,-1,-1,48.20605694,15.34823358,63.55429052,-605.0000721,-1,-1,-1,-1
1.71E+12,128,128,-1,-1,-1,-1,48.20657821,15.3515404,63.55811861,-605.0000721,-1,-1,-1,-1
1.71E+12,128,128,-1,-1,-1,-1,48.20714459,15.35487539,63.56201998,-605.0000721,-1,-1,-1,-1
1.71E+12,128,128,-1,-1,-1,-1,48.20775192,15.35824563,63.56599755,-605.0000721,-1,-1,-1,-1
1.71E+12,128,128,-1,-1,-1,-1,48.20839593,15.36165808,63.57005402,-605.0000721,-1,-1,-1,-1
1.71E+12,128,128,-1,-1,-1,-1,48.20907231,15.36511952,63.57419183,-605.0000721,-1,-1,-1,-1
1.71E+12,128,128,-1,-1,-1,-1,48.20977664,15.36863653,63.57841317,-605.0000721,-1,-1,-1,-1
1.71E+12,128,128,-1,-1,-1,-1,48.21050445,15.37221545,63.5827199,-605.0000721,-1,-1,-1,-1
1.71E+12,128,128,-1,-1,-1,-1,48.21125116,15.37586236,63.58711352,-605.0000721,-1,-1,-1,-1
1.71E+12,128,128,-1,-1,-1,-1,48.21201209,15.37958309,63.59159518,-605.0000721,-1,-1,-1,-1
1.71E+12,128,128,-1,-1,-1,-1,48.2127825,15.38338316,63.59616566,-605.0000721,-1,-1,-1,-1
1.71E+12,128,128,-1,-1,-1,-1,48.21355767,15.38726778,63.60082545,-605.0000721,-1,-1,-1,-1
1.71E+12,128,128,-1,-1,-1,-1,48.21433284,15.39124188,63.60557472,-605.0000721,-1,-1,-1,-1
1.71E+12,128,128,-1,-1,-1,-1,48.21510326,15.39531011,63.61041337,-605.0000721,-1,-1,-1,-1
1.71E+12,128,128,-1,-1,-1,-1,48.21586418,15.39947679,63.61534098,-605.0000721,-1,-1,-1,-1
1.71E+12,128,128,-1,-1,-1,-1,48.21661085,15.40374592,63.62035677,-605.0000721,-1,-1,-1,-1
1.71E+12,128,128,-1,-1,-1,-1,48.21733848,15.40812112,63.62545961,-605.0000721,-1,-1,-1,-1
1.71E+12,128,128,-1,-1,-1,-1,48.21804229,15.4126057,63.63064799,-605.0000721,-1,-1,-1,-1
1.71E+12,128,128,-1,-1,-1,-1,48.21871752,15.41720254,63.63592006,-605.0000721,-1,-1,-1,-1
1.71E+12,128,128,-1,-1,-1,-1,48.21935949,15.42191412,63.64127361,-605.0000721,-1,-1,-1,-1
1.71E+12,128,128,-1,-1,-1,-1,48.21996361,15.42674252,63.64670613,-605.0000721,-1,-1,-1,-1
1.71E+12,128,128,-1,-1,-1,-1,48.2205254,15.43168945,63.65221485,-605.0000721,-1,-1,-1,-1
1.71E+12,128,128,-1,-1,-1,-1,48.22104046,15.43675629,63.65779674,-605.0000721,-1,-1,-1,-1
1.71E+12,128,128,-1,-1,-1,-1,48.22150443,15.44194406,63.66344849,-605.0000721,-1,-1,-1,-1
1.71E+12,128,128,-1,-1,-1,-1,48.22191303,15.44725347,63.6691665,-605.0000721,-1,-1,-1,-1
1.71E+12,128,128,-1,-1,-1,-1,48.22226196,15.45268487,63.67494683,-605.0000721,-1,-1,-1,-1
1.71E+12,128,128,-1,-1,-1,-1,48.222547,15.45823824,63.68078524,-605.0000721,-1,-1,-1,-1
1.71E+12,128,128,-1,-1,-1,-1,48.22276401,15.46391318,63.68667719,-605.0000721,-1,-1,-1,-1
1.71E+12,128,128,-1,-1,-1,-1,48.22290894,15.46970895,63.69261789,-605.0000721,-1,-1,-1,-1
1.71E+12,128,128,-1,-1,-1,-1,48.2229779,15.47562443,63.69860233,-605.0000721,-1,-1,-1,-1
1.71E+12,128,128,-1,-1,-1,-1,48.2229671,15.48165824,63.70462533,-605.0000721,-1,-1,-1,-1
1.71E+12,128,128,-1,-1,-1,-1,48.2228729,15.48780865,63.71068155,-605.0000721,-1,-1,-1,-1
1.71E+12,128,128,-1,-1,-1,-1,48.2226918,15.49407365,63.71676545,-605.0000721,-1,-1,-1,-1
1.71E+12,128,128,-1,-1,-1,-1,48.22242041,15.50045091,63.72287132,-605.0000721,-1,-1,-1,-1
1.71E+12,128,128,-1,-1,-1,-1,48.22205542,15.50693781,63.72899323,-605.0000721,-1,-1,-1,-1
1.71E+12,128,128,-1,-1,-1,-1,48.22159364,15.51353145,63.73512509,-605.0000721,-1,-1,-1,-1
1.71E+12,128,128,-1,-1,-1,-1,48.22103202,15.52022867,63.74126069,-605.0000721,-1,-1,-1,-1
1.71E+12,128,128,-1,-1,-1,-1,48.22036768,15.52702607,63.74739374,-605.0000721,-1,-1,-1,-1
1.71E+12,128,128,-1,-1,-1,-1,48.21959791,15.53392001,63.75351791,-605.0000721,-1,-1,-1,-1
1.71E+12,128,128,-1,-1,-1,-1,48.21872018,15.54090668,63.75962685,-605.0000721,-1,-1,-1,-1
1.71E+12,128,128,-1,-1,-1,-1,48.21773209,15.54798208,63.76571417,-605.0000721,-1,-1,-1,-1
1.71E+12,128,128,-1,-1,-1,-1,48.2166314,15.55514206,63.77177346,-605.0000721,-1,-1,-1,-1
1.71E+12,128,128,-1,-1,-1,-1,48.21541601,15.56238235,63.77779836,-605.0000721,-1,-1,-1,-1
1.71E+12,128,128,-1,-1,-1,-1,48.21408393,15.56969861,63.78378254,-605.0000721,-1,-1,-1,-1
1.71E+12,128,128,-1,-1,-1,-1,48.21263331,15.57708648,63.78971979,-605.0000721,-1,-1,-1,-1
1.71E+12,128,128,-1,-1,-1,-1,48.21106245,15.58454164,63.79560409,-605.0000721,-1,-1,-1,-1
1.71E+12,128,128,-1,-1,-1,-1,48.20936973,15.59206,63.80142973,-605.0000721,-1,-1,-1,-1
1.71E+12,128,128,-1,-1,-1,-1,48.2075536,15.59963767,63.80719126,-605.0000721,-1,-1,-1,-1
1.71E+12,128,128,-1,-1,-1,-1,48.2056125,15.60727095,63.81288345,-605.0000721,-1,-1,-1,-1
1.71E+12,128,128,-1,-1,-1,-1,48.2035449,15.6149562,63.8185011,-605.0000721,-1,-1,-1,-1
1.71E+12,128,128,-1,-1,-1,-1,48.20134921,15.62268987,63.82403908,-605.0000721,-1,-1,-1,-1
1.71E+12,128,128,-1,-1,-1,-1,48.19902376,15.63046858,63.82949234,-605.0000721,-1,-1,-1,-1
1.71E+12,128,128,-1,-1,-1,-1,48.19656674,15.63828908,63.83485582,-605.0000721,-1,-1,-1,-1
1.71E+12,128,128,-1,-1,-1,-1,48.19397627,15.64614816,63.84012443,-605.0000721,-1,-1,-1,-1
1.71E+12,128,128,-1,-1,-1,-1,48.19125037,15.65404259,63.84529296,-605.0000721,-1,-1,-1,-1
1.71E+12,128,128,-1,-1,-1,-1,48.18838708,15.66196891,63.85035599,-605.0000721,-1,-1,-1,-1
1.71E+12,128,128,-1,-1,-1,-1,48.18538434,15.66992356,63.8553079,-605.0000721,-1,-1,-1,-1
1.71E+12,128,128,-1,-1,-1,-1,48.18224011,15.67790273,63.86014283,-605.0000721,-1,-1,-1,-1
1.71E+12,128,128,-1,-1,-1,-1,48.17895266,15.68590188,63.86485454,-605.0000721,-1,-1,-1,-1
1.71E+12,128,128,-1,-1,-1,-1,48.17552074,15.69391554,63.86943629,-605.0000721,-1,-1,-1,-1
1.71E+12,128,128,-1,-1,-1,-1,48.1719438,15.70193702,63.87388083,-605.0000721,-1,-1,-1,-1
1.71E+12,128,128,-1,-1,-1,-1,48.16822217,15.70995827,63.87818044,-605.0000721,-1,-1,-1,-1
1.71E+12,128,128,-1,-1,-1,-1,48.16435681,15.71797062,63.88232743,-605.0000721,-1,-1,-1,-1
1.71E+12,128,128,-1,-1,-1,-1,48.16034905,15.72596569,63.88631474,-605.0000721,-1,-1,-1,-1
1.71E+12,128,128,-1,-1,-1,-1,48.15620049,15.73393563,63.89013613,-605.0000721,-1,-1,-1,-1
1.71E+12,128,128,-1,-1,-1,-1,48.1519129,15.74187319,63.89378609,-605.0000721,-1,-1,-1,-1
1.71E+12,128,128,-1,-1,-1,-1,48.14748823,15.74977193,63.89726016,-605.0000721,-1,-1,-1,-1
1.71E+12,128,128,-1,-1,-1,-1,48.14292867,15.75762616,63.90055483,-605.0000721,-1,-1,-1,-1
1.71E+12,128,128,-1,-1,-1,-1,48.13823674,15.76543061,63.90366734,-605.0000721,-1,-1,-1,-1
1.71E+12,128,128,-1,-1,-1,-1,48.13341517,15.77318033,63.90659551,-605.0000721,-1,-1,-1,-1
1.71E+12,128,128,-1,-1,-1,-1,48.12846677,15.78087093,63.9093377,-605.0000721,-1,-1,-1,-1
1.71E+12,128,128,-1,-1,-1,-1,48.12339438,15.78849845,63.91189283,-605.0000721,-1,-1,-1,-1
1.71E+12,128,128,-1,-1,-1,-1,48.11820092,15.79605942,63.91426034,-605.0000721,-1,-1,-1,-1
1.71E+12,128,128,-1,-1,-1,-1,48.11288925,15.80355088,63.91644013,-605.0000721,-1,-1,-1,-1
1.71E+12,128,128,-1,-1,-1,-1,48.10746213,15.81097028,63.91843241,-605.0000721,-1,-1,-1,-1
1.71E+12,128,128,-1,-1,-1,-1,48.10192213,15.81831546,63.9202376,-605.0000721,-1,-1,-1,-1
1.71E+12,128,128,-1,-1,-1,-1,48.09627165,15.82558461,63.92185626,-605.0000721,-1,-1,-1,-1
1.71E+12,128,128,-1,-1,-1,-1,48.09051281,15.83277618,63.92328898,-605.0000721,-1,-1,-1,-1
1.71E+12,128,128,-1,-1,-1,-1,48.0846476,15.83988879,63.92453639,-605.0000721,-1,-1,-1,-1
1.71E+12,128,128,-1,-1,-1,-1,48.0786781,15.84692119,63.92559929,-605.0000721,-1,-1,-1,-1
1.71E+12,128,128,-1,-1,-1,-1,48.07260653,15.85387218,63.92647871,-605.0000721,-1,-1,-1,-1
1.71E+12,128,128,-1,-1,-1,-1,48.06643526,15.86074071,63.92717597,-605.0000721,-1,-1,-1,-1
1.71E+12,128,128,-1,-1,-1,-1,48.06016682,15.86752581,63.92769264,-605.0000721,-1,-1,-1,-1
1.71E+12,128,128,-1,-1,-1,-1,48.05380394,15.87422658,63.92803051,-605.0000721,-1,-1,-1,-1
1.71E+12,128,128,-1,-1,-1,-1,48.04734939,15.8808422,63.9281916,-605.0000721,-1,-1,-1,-1
1.71E+12,128,128,-1,-1,-1,-1,48.04080607,15.88737194,63.92817801,-605.0000721,-1,-1,-1,-1
1.71E+12,128,128,-1,-1,-1,-1,48.03417694,15.89381507,63.92799201,-605.0000721,-1,-1,-1,-1
1.71E+12,128,128,-1,-1,-1,-1,48.0274651,15.90017094,63.92763604,-605.0000721,-1,-1,-1,-1
1.71E+12,128,128,-1,-1,-1,-1,48.02067378,15.90643897,63.92711275,-605.0000721,-1,-1,-1,-1
1.71E+12,128,128,-1,-1,-1,-1,48.01380636,15.91261866,63.92642502,-605.0000721,-1,-1,-1,-1
1.71E+12,128,128,-1,-1,-1,-1,48.00686634,15.91870963,63.92557597,-605.0000721,-1,-1,-1,-1
1.71E+12,128,128,-1,-1,-1,-1,47.99985731,15.92471161,63.92456892,-605.0000721,-1,-1,-1,-1
1.71E+12,128,128,-1,-1,-1,-1,47.9927829,15.93062444,63.92340734,-605.0000721,-1,-1,-1,-1
1.71E+12,128,128,-1,-1,-1,-1,47.98564676,15.9364481,63.92209486,-605.0000721,-1,-1,-1,-1
1.71E+12,128,128,-1,-1,-1,-1,47.97845253,15.94218271,63.92063524,-605.0000721,-1,-1,-1,-1
1.71E+12,128,128,-1,-1,-1,-1,47.97120387,15.94782848,63.91903235,-605.0000721,-1,-1,-1,-1
1.71E+12,128,128,-1,-1,-1,-1,47.96390448,15.95338572,63.9172902,-605.0000721,-1,-1,-1,-1
1.71E+12,128,128,-1,-1,-1,-1,47.95655814,15.95885482,63.91541296,-605.0000721,-1,-1,-1,-1
1.71E+12,128,128,-1,-1,-1,-1,47.94916867,15.96423629,63.91340497,-605.0000721,-1,-1,-1,-1
1.71E+12,128,128,-1,-1,-1,-1,47.94173995,15.96953076,63.91127071,-605.0000721,-1,-1,-1,-1
1.71E+12,128,128,-1,-1,-1,-1,47.93427581,15.97473894,63.90901475,-605.0000721,-1,-1,-1,-1
1.71E+12,128,128,-1,-1,-1,-1,47.92678007,15.97986168,63.90664175,-605.0000721,-1,-1,-1,-1
1.71E+12,128,128,-1,-1,-1,-1,47.91925653,15.98489993,63.90415647,-605.0000721,-1,-1,-1,-1
1.71E+12,128,128,-1,-1,-1,-1,47.91170894,15.98985474,63.90156368,-605.0000721,-1,-1,-1,-1
1.71E+12,128,128,-1,-1,-1,-1,47.904141,15.99472723,63.89886824,-605.0000721,-1,-1,-1,-1
1.71E+12,128,128,-1,-1,-1,-1,47.89655642,15.99951864,63.89607507,-605.0000721,-1,-1,-1,-1
1.71E+12,128,128,-1,-1,-1,-1,47.88895889,16.00423026,63.89318915,-605.0000721,-1,-1,-1,-1
1.71E+12,128,128,-1,-1,-1,-1,47.88135206,16.00886347,63.89021553,-605.0000721,-1,-1,-1,-1
1.71E+12,128,128,-1,-1,-1,-1,47.87373953,16.01341976,63.88715929,-605.0000721,-1,-1,-1,-1
1.71E+12,128,128,-1,-1,-1,-1,47.86612485,16.01790068,63.88402553,-605.0000721,-1,-1,-1,-1
1.71E+12,128,128,-1,-1,-1,-1,47.85851142,16.02230788,63.8808193,-605.0000721,-1,-1,-1,-1
1.71E+12,128,128,-1,-1,-1,-1,47.85090254,16.02664308,63.87754562,-605.0000721,-1,-1,-1,-1
1.71E+12,128,128,-1,-1,-1,-1,47.84330144,16.03090803,63.87420947,-605.0000721,-1,-1,-1,-1
1.71E+12,128,128,-1,-1,-1,-1,47.83571123,16.03510456,63.87081579,-605.0000721,-1,-1,-1,-1
1.71E+12,128,128,-1,-1,-1,-1,47.82813503,16.03923454,63.86736957,-605.0000721,-1,-1,-1,-1
1.71E+12,128,128,-1,-1,-1,-1,47.8205759,16.04329989,63.86387579,-605.0000721,-1,-1,-1,-1
1.71E+12,128,128,-1,-1,-1,-1,47.81303681,16.04730254,63.86033935,-605.0000721,-1,-1,-1,-1
1.71E+12,128,128,-1,-1,-1,-1,47.80552061,16.0512445,63.8567651,-605.0000721,-1,-1,-1,-1
1.71E+12,128,128,-1,-1,-1,-1,47.79803002,16.05512782,63.85315784,-605.0000721,-1,-1,-1,-1
1.71E+12,128,128,-1,-1,-1,-1,47.79056763,16.05895462,63.84952225,-605.0000721,-1,-1,-1,-1
1.71E+12,128,128,-1,-1,-1,-1,47.78313591,16.06272699,63.8458629,-605.0000721,-1,-1,-1,-1
1.71E+12,128,128,-1,-1,-1,-1,47.7757372,16.06644707,63.84218427,-605.0000721,-1,-1,-1,-1
1.71E+12,128,128,-1,-1,-1,-1,47.76837379,16.07011701,63.8384908,-605.0000721,-1,-1,-1,-1
1.71E+12,128,128,-1,-1,-1,-1,47.76104787,16.07373896,63.83478682,-605.0000721,-1,-1,-1,-1
1.71E+12,128,128,-1,-1,-1,-1,47.75376153,16.07731508,63.83107661,-605.0000721,-1,-1,-1,-1
1.71E+12,128,128,-1,-1,-1,-1,47.74651676,16.08084754,63.8273643,-605.0000721,-1,-1,-1,-1
1.71E+12,128,128,-1,-1,-1,-1,47.73931538,16.08433849,63.82365387,-605.0000721,-1,-1,-1,-1
1.71E+12,128,128,-1,-1,-1,-1,47.73215905,16.08779008,63.81994913,-605.0000721,-1,-1,-1,-1
1.71E+12,128,128,-1,-1,-1,-1,47.72504928,16.09120445,63.81625373,-605.0000721,-1,-1,-1,-1
1.71E+12,128,128,-1,-1,-1,-1,47.71798743,16.09458369,63.81257112,-605.0000721,-1,-1,-1,-1
1.71E+12,128,128,-1,-1,-1,-1,47.71097475,16.09792987,63.80890461,-605.0000721,-1,-1,-1,-1
1.71E+12,128,128,-1,-1,-1,-1,47.70401236,16.10124504,63.8052574,-605.0000721,-1,-1,-1,-1
1.71E+12,128,128,-1,-1,-1,-1,47.69710132,16.1045312,63.80163253,-605.0000721,-1,-1,-1,-1
1.71E+12,128,128,-1,-1,-1,-1,47.6902426,16.10779034,63.79803294,-605.0000721,-1,-1,-1,-1
1.71E+12,128,128,-1,-1,-1,-1,47.68343703,16.11102439,63.79446143,-605.0000721,-1,-1,-1,-1
1.71E+12,128,128,-1,-1,-1,-1,47.67668532,16.11423525,63.79092057,-605.0000721,-1,-1,-1,-1
1.71E+12,128,128,-1,-1,-1,-1,47.66998799,16.11742479,63.78741278,-605.0000721,-1,-1,-1,-1
1.71E+12,128,128,-1,-1,-1,-1,47.66334545,16.12059482,63.78394027,-605.0000721,-1,-1,-1,-1
1.71E+12,128,128,-1,-1,-1,-1,47.65675798,16.12374707,63.78050505,-605.0000721,-1,-1,-1,-1
1.71E+12,128,128,-1,-1,-1,-1,47.65022576,16.12688321,63.77710897,-605.0000721,-1,-1,-1,-1
1.71E+12,128,128,-1,-1,-1,-1,47.64374892,16.13000487,63.77375379,-605.0000721,-1,-1,-1,-1
1.71E+12,128,128,-1,-1,-1,-1,47.63732753,16.1331136,63.77044112,-605.0000721,-1,-1,-1,-1
1.71E+12,128,128,-1,-1,-1,-1,47.63096156,16.13621093,63.76717248,-605.0000721,-1,-1,-1,-1
1.71E+12,128,128,-1,-1,-1,-1,47.62465091,16.13929833,63.76394924,-605.0000721,-1,-1,-1,-1
1.71E+12,128,128,-1,-1,-1,-1,47.6183954,16.14237719,63.76077259,-605.0000721,-1,-1,-1,-1
1.71E+12,128,128,-1,-1,-1,-1,47.61219476,16.14544883,63.75764359,-605.0000721,-1,-1,-1,-1
1.71E+12,128,128,-1,-1,-1,-1,47.60604864,16.14851452,63.75456316,-605.0000721,-1,-1,-1,-1
1.71E+12,128,128,-1,-1,-1,-1,47.59995664,16.15157545,63.7515321,-605.0000721,-1,-1,-1,-1
1.71E+12,128,128,-1,-1,-1,-1,47.5939183,16.15463276,63.74855106,-605.0000721,-1,-1,-1,-1
1.71E+12,128,128,-1,-1,-1,-1,47.58793315,16.1576875,63.74562065,-605.0000721,-1,-1,-1,-1
1.71E+12,128,128,-1,-1,-1,-1,47.58200069,16.16074065,63.74274135,-605.0000721,-1,-1,-1,-1
1.71E+12,128,128,-1,-1,-1,-1,47.57612043,16.16379317,63.7399136,-605.0000721,-1,-1,-1,-1
1.71E+12,128,128,-1,-1,-1,-1,47.57029181,16.16684594,63.73713775,-605.0000721,-1,-1,-1,-1
1.71E+12,128,128,-1,-1,-1,-1,47.56451423,16.16989978,63.73441401,-605.0000721,-1,-1,-1,-1
1.71E+12,128,128,-1,-1,-1,-1,47.55878702,16.17295545,63.73174247,-605.0000721,-1,-1,-1,-1
1.71E+12,128,128,-1,-1,-1,-1,47.5531095,16.17601363,63.72912313,-605.0000721,-1,-1,-1,-1
1.71E+12,128,128,-1,-1,-1,-1,47.54748096,16.17907497,63.72655593,-605.0000721,-1,-1,-1,-1
1.71E+12,128,128,-1,-1,-1,-1,47.54190074,16.18214001,63.72404075,-605.0000721,-1,-1,-1,-1
1.71E+12,128,128,-1,-1,-1,-1,47.5363682,16.18520925,63.72157745,-605.0000721,-1,-1,-1,-1
1.71E+12,128,128,-1,-1,-1,-1,47.53088271,16.1882831,63.71916581,-605.0000721,-1,-1,-1,-1
1.71E+12,128,128,-1,-1,-1,-1,47.5254436,16.19136195,63.71680556,-605.0000721,-1,-1,-1,-1
1.71E+12,128,128,-1,-1,-1,-1,47.52005021,16.19444615,63.71449636,-605.0000721,-1,-1,-1,-1
1.71E+12,128,128,-1,-1,-1,-1,47.51470183,16.19753597,63.71223779,-605.0000721,-1,-1,-1,-1
1.71E+12,128,128,-1,-1,-1,-1,47.50939777,16.20063164,63.7100294,-605.0000721,-1,-1,-1,-1
1.71E+12,128,128,-1,-1,-1,-1,47.50413734,16.20373331,63.70787065,-605.0000721,-1,-1,-1,-1
1.71E+12,128,128,-1,-1,-1,-1,47.49891988,16.20684111,63.70576099,-605.0000721,-1,-1,-1,-1
1.71E+12,128,128,-1,-1,-1,-1,47.49374481,16.20995507,63.70369988,-605.0000721,-1,-1,-1,-1
1.71E+12,128,128,-1,-1,-1,-1,47.48861158,16.21307521,63.70168679,-605.0000721,-1,-1,-1,-1
1.71E+12,128,128,-1,-1,-1,-1,47.4835197,16.21620151,63.69972121,-605.0000721,-1,-1,-1,-1
1.71E+12,128,128,-1,-1,-1,-1,47.47846871,16.21933389,63.6978026,-605.0000721,-1,-1,-1,-1
1.71E+12,128,128,-1,-1,-1,-1,47.47345814,16.22247228,63.69593042,-605.0000721,-1,-1,-1,-1
1.71E+12,128,128,-1,-1,-1,-1,47.46848754,16.22561654,63.69410409,-605.0000721,-1,-1,-1,-1
1.71E+12,128,128,-1,-1,-1,-1,47.46355646,16.22876654,63.692323,-605.0000721,-1,-1,-1,-1
1.71E+12,128,128,-1,-1,-1,-1,47.45866451,16.23192203,63.69058654,-605.0000721,-1,-1,-1,-1
1.71E+12,128,128,-1,-1,-1,-1,47.45381134,16.23508277,63.68889411,-605.0000721,-1,-1,-1,-1
1.71E+12,128,128,-1,-1,-1,-1,47.4489967,16.23824846,63.68724516,-605.0000721,-1,-1,-1,-1
1.71E+12,128,128,-1,-1,-1,-1,47.4442204,16.24141878,63.68563918,-605.0000721,-1,-1,-1,-1
1.71E+12,128,128,-1,-1,-1,-1,47.43948228,16.24459338,63.68407566,-605.0000721,-1,-1,-1,-1
1.71E+12,128,128,-1,-1,-1,-1,47.43478218,16.24777191,63.68255409,-605.0000721,-1,-1,-1,-1
1.71E+12,128,128,-1,-1,-1,-1,47.43011992,16.25095402,63.68107394,-605.0000721,-1,-1,-1,-1
1.71E+12,128,128,-1,-1,-1,-1,47.42549535,16.25413932,63.67963467,-605.0000721,-1,-1,-1,-1
1.71E+12,128,128,-1,-1,-1,-1,47.42090834,16.25732743,63.67823576,-605.0000721,-1,-1,-1,-1
1.71E+12,128,128,-1,-1,-1,-1,47.4163588,16.26051791,63.67687671,-605.0000721,-1,-1,-1,-1
1.71E+12,128,128,-1,-1,-1,-1,47.41184674,16.26371033,63.67555707,-605.0000721,-1,-1,-1,-1
1.71E+12,128,128,-1,-1,-1,-1,47.40737222,16.26690421,63.67427643,-605.0000721,-1,-1,-1,-1
1.71E+12,128,128,-1,-1,-1,-1,47.40293533,16.27009906,63.67303439,-605.0000721,-1,-1,-1,-1
1.71E+12,128,128,-1,-1,-1,-1,47.3985362,16.27329439,63.67183058,-605.0000721,-1,-1,-1,-1
1.71E+12,128,128,-1,-1,-1,-1,47.39417492,16.2764897,63.67066462,-605.0000721,-1,-1,-1,-1
1.71E+12,128,128,-1,-1,-1,-1,47.38985163,16.27968449,63.66953611,-605.0000721,-1,-1,-1,-1
1.71E+12,128,128,-1,-1,-1,-1,47.38556645,16.28287822,63.66844467,-605.0000721,-1,-1,-1,-1
1.71E+12,128,128,-1,-1,-1,-1,47.38131957,16.28607033,63.66738991,-605.0000721,-1,-1,-1,-1
1.71E+12,128,128,-1,-1,-1,-1,47.37711122,16.2892603,63.66637152,-605.0000721,-1,-1,-1,-1
1.71E+12,128,128,-1,-1,-1,-1,47.37294163,16.2924476,63.66538923,-605.0000721,-1,-1,-1,-1
1.71E+12,128,128,-1,-1,-1,-1,47.36881103,16.29563175,63.66444279,-605.0000721,-1,-1,-1,-1
1.71E+12,128,128,-1,-1,-1,-1,47.36471966,16.29881229,63.66353195,-605.0000721,-1,-1,-1,-1
1.71E+12,128,128,-1,-1,-1,-1,47.3606677,16.30198876,63.66265646,-605.0000721,-1,-1,-1,-1
1.71E+12,128,128,-1,-1,-1,-1,47.35665531,16.30516077,63.66181608,-605.0000721,-1,-1,-1,-1
1.71E+12,128,128,-1,-1,-1,-1,47.35268263,16.30832792,63.66101055,-605.0000721,-1,-1,-1,-1
1.71E+12,128,128,-1,-1,-1,-1,47.34874977,16.31148984,63.66023961,-605.0000721,-1,-1,-1,-1
1.71E+12,128,128,-1,-1,-1,-1,47.34485687,16.31464618,63.65950305,-605.0000721,-1,-1,-1,-1
1.71E+12,128,128,-1,-1,-1,-1,47.34100409,16.31779662,63.65880071,-605.0000721,-1,-1,-1,-1
1.71E+12,128,128,-1,-1,-1,-1,47.33719161,16.32094088,63.65813249,-605.0000721,-1,-1,-1,-1
1.71E+12,128,128,-1,-1,-1,-1,47.3334196,16.32407865,63.65749826,-605.0000721,-1,-1,-1,-1
1.71E+12,128,128,-1,-1,-1,-1,47.32968821,16.3272097,63.65689791,-605.0000721,-1,-1,-1,-1
1.71E+12,128,128,-1,-1,-1,-1,47.32599754,16.33033383,63.65633137,-605.0000721,-1,-1,-1,-1
1.71E+12,128,128,-1,-1,-1,-1,47.32234771,16.33345087,63.65579859,-605.0000721,-1,-1,-1,-1
1.71E+12,128,128,-1,-1,-1,-1,47.31873887,16.33656069,63.65529956,-605.0000721,-1,-1,-1,-1
1.71E+12,128,128,-1,-1,-1,-1,47.31517114,16.33966316,63.6548343,-605.0000721,-1,-1,-1,-1
1.71E+12,128,128,-1,-1,-1,-1,47.31164472,16.3427582,63.65440293,-605.0000721,-1,-1,-1,-1
1.71E+12,128,128,-1,-1,-1,-1,47.30815986,16.34584573,63.65400559,-605.0000721,-1,-1,-1,-1
1.71E+12,128,128,-1,-1,-1,-1,47.30471677,16.34892572,63.65364249,-605.0000721,-1,-1,-1,-1
1.71E+12,128,128,-1,-1,-1,-1,47.30131566,16.35199819,63.65331384,-605.0000721,-1,-1,-1,-1
1.71E+12,128,128,-1,-1,-1,-1,47.29795665,16.35506319,63.65301985,-605.0000721,-1,-1,-1,-1
1.71E+12,128,128,-1,-1,-1,-1,47.29463985,16.3581208,63.65276066,-605.0000721,-1,-1,-1,-1
1.71E+12,128,128,-1,-1,-1,-1,47.2913653,16.36117108,63.65253638,-605.0000721,-1,-1,-1,-1
1.71E+12,128,128,-1,-1,-1,-1,47.28813301,16.36421409,63.6523471,-605.0000721,-1,-1,-1,-1
1.71E+12,128,128,-1,-1,-1,-1,47.28494296,16.36724995,63.65219291,-605.0000721,-1,-1,-1,-1
1.71E+12,128,128,-1,-1,-1,-1,47.28179514,16.37027877,63.6520739,-605.0000721,-1,-1,-1,-1
1.71E+12,128,128,-1,-1,-1,-1,47.27868946,16.37330072,63.65199018,-605.0000721,-1,-1,-1,-1
1.71E+12,128,128,-1,-1,-1,-1,47.27562583,16.37631603,63.65194186,-605.0000721,-1,-1,-1,-1
1.71E+12,128,128,-1,-1,-1,-1,47.27260407,16.37932492,63.65192898,-605.0000721,-1,-1,-1,-1
1.71E+12,128,128,-1,-1,-1,-1,47.26962396,16.38232761,63.65195156,-605.0000721,-1,-1,-1,-1
1.71E+12,128,128,-1,-1,-1,-1,47.26668523,16.3853243,63.65200953,-605.0000721,-1,-1,-1,-1
1.71E+12,128,128,-1,-1,-1,-1,47.2637876,16.38831515,63.65210275,-605.0000721,-1,-1,-1,-1
1.71E+12,128,128,-1,-1,-1,-1,47.26093075,16.39130031,63.65223105,-605.0000721,-1,-1,-1,-1
1.71E+12,128,128,-1,-1,-1,-1,47.25811435,16.3942799,63.65239426,-605.0000721,-1,-1,-1,-1
1.71E+12,128,128,-1,-1,-1,-1,47.25533809,16.39725409,63.65259218,-605.0000721,-1,-1,-1,-1
1.71E+12,128,128,-1,-1,-1,-1,47.25260163,16.40022303,63.65282466,-605.0000721,-1,-1,-1,-1
1.71E+12,128,128,-1,-1,-1,-1,47.24990458,16.40318688,63.65309146,-605.0000721,-1,-1,-1,-1
1.71E+12,128,128,-1,-1,-1,-1,47.24724651,16.4061458,63.65339232,-605.0000721,-1,-1,-1,-1
1.71E+12,128,128,-1,-1,-1,-1,47.24462694,16.40909998,63.65372692,-605.0000721,-1,-1,-1,-1
1.71E+12,128,128,-1,-1,-1,-1,47.24204533,16.41204958,63.65409491,-605.0000721,-1,-1,-1,-1
1.71E+12,128,128,-1,-1,-1,-1,47.23950109,16.4149948,63.6544959,-605.0000721,-1,-1,-1,-1
1.71E+12,128,128,-1,-1,-1,-1,47.23699361,16.41793585,63.65492946,-605.0000721,-1,-1,-1,-1
1.71E+12,128,128,-1,-1,-1,-1,47.23452229,16.4208729,63.65539519,-605.0000721,-1,-1,-1,-1
1.71E+12,128,128,-1,-1,-1,-1,47.23208655,16.42380611,63.65589266,-605.0000721,-1,-1,-1,-1
1.71E+12,128,128,-1,-1,-1,-1,47.22968583,16.42673562,63.65642145,-605.0000721,-1,-1,-1,-1
1.71E+12,128,128,-1,-1,-1,-1,47.22731951,16.42966157,63.65698108,-605.0000721,-1,-1,-1,-1
1.71E+12,128,128,-1,-1,-1,-1,47.22498695,16.43258411,63.65757106,-605.0000721,-1,-1,-1,-1
1.71E+12,128,128,-1,-1,-1,-1,47.22268747,16.43550337,63.65819084,-605.0000721,-1,-1,-1,-1
1.71E+12,128,128,-1,-1,-1,-1,47.22042038,16.43841947,63.65883985,-605.0000721,-1,-1,-1,-1
1.71E+12,128,128,-1,-1,-1,-1,47.21818497,16.44133252,63.65951749,-605.0000721,-1,-1,-1,-1
1.71E+12,128,128,-1,-1,-1,-1,47.21598055,16.4442426,63.66022314,-605.0000721,-1,-1,-1,-1
1.71E+12,128,128,-1,-1,-1,-1,47.21380644,16.44714979,63.66095624,-605.0000721,-1,-1,-1,-1
1.71E+12,128,128,-1,-1,-1,-1,47.211662,16.45005418,63.66171618,-605.0000721,-1,-1,-1,-1
1.71E+12,128,128,-1,-1,-1,-1,47.20954657,16.45295584,63.66250241,-605.0000721,-1,-1,-1,-1
1.71E+12,128,128,-1,-1,-1,-1,47.20745951,16.45585481,63.66331432,-605.0000721,-1,-1,-1,-1
1.71E+12,128,128,-1,-1,-1,-1,47.20540013,16.45875115,63.66415128,-605.0000721,-1,-1,-1,-1
1.71E+12,128,128,-1,-1,-1,-1,47.20336774,16.46164487,63.66501262,-605.0000721,-1,-1,-1,-1
1.71E+12,128,128,-1,-1,-1,-1,47.20136166,16.46453597,63.66589762,-605.0000721,-1,-1,-1,-1
1.71E+12,128,128,-1,-1,-1,-1,47.19938118,16.46742441,63.66680559,-605.0000721,-1,-1,-1,-1
1.71E+12,128,128,-1,-1,-1,-1,47.19742569,16.47031013,63.66773582,-605.0000721,-1,-1,-1,-1
1.71E+12,128,128,-1,-1,-1,-1,47.19549459,16.47319303,63.66868761,-605.0000721,-1,-1,-1,-1
1.71E+12,128,128,-1,-1,-1,-1,47.19358731,16.47607296,63.66966027,-605.0000721,-1,-1,-1,-1
1.71E+12,128,128,-1,-1,-1,-1,47.19170328,16.47894978,63.67065306,-605.0000721,-1,-1,-1,-1
1.71E+12,128,128,-1,-1,-1,-1,47.18984192,16.48182331,63.67166523,-605.0000721,-1,-1,-1,-1
1.71E+12,128,128,-1,-1,-1,-1,47.18800261,16.48469337,63.67269599,-605.0000721,-1,-1,-1,-1
1.71E+12,128,128,-1,-1,-1,-1,47.18618472,16.48755974,63.67374446,-605.0000721,-1,-1,-1,-1
1.71E+12,128,128,-1,-1,-1,-1,47.1843876,16.49042215,63.67480976,-605.0000721,-1,-1,-1,-1
1.71E+12,128,128,-1,-1,-1,-1,47.18261067,16.49328028,63.67589096,-605.0000721,-1,-1,-1,-1
1.71E+12,128,128,-1,-1,-1,-1,47.18085338,16.4961338,63.67698719,-605.0000721,-1,-1,-1,-1
1.71E+12,128,128,-1,-1,-1,-1,47.17911523,16.49898236,63.67809758,-605.0000721,-1,-1,-1,-1
1.71E+12,128,128,-1,-1,-1,-1,47.17739573,16.50182556,63.67922129,-605.0000721,-1,-1,-1,-1
1.71E+12,128,128,-1,-1,-1,-1,47.1756944,16.50466302,63.68035742,-605.0000721,-1,-1,-1,-1
1.71E+12,128,128,-1,-1,-1,-1,47.1740107,16.50749431,63.68150501,-605.0000721,-1,-1,-1,-1
1.71E+12,128,128,-1,-1,-1,-1,47.17234404,16.51031898,63.68266302,-605.0000721,-1,-1,-1,-1
1.71E+12,128,128,-1,-1,-1,-1,47.17069385,16.51313657,63.68383042,-605.0000721,-1,-1,-1,-1
1.71E+12,128,128,-1,-1,-1,-1,47.16905957,16.51594655,63.68500613,-605.0000721,-1,-1,-1,-1
1.71E+12,128,128,-1,-1,-1,-1,47.16744069,16.5187484,63.68618909,-605.0000721,-1,-1,-1,-1
1.71E+12,128,128,-1,-1,-1,-1,47.16583672,16.52154154,63.68737826,-605.0000721,-1,-1,-1,-1
1.71E+12,128,128,-1,-1,-1,-1,47.16424723,16.52432537,63.68857261,-605.0000721,-1,-1,-1,-1
1.71E+12,128,128,-1,-1,-1,-1,47.16267181,16.52709931,63.68977112,-605.0000721,-1,-1,-1,-1
1.71E+12,128,128,-1,-1,-1,-1,47.16111004,16.52986275,63.69097279,-605.0000721,-1,-1,-1,-1
1.71E+12,128,128,-1,-1,-1,-1,47.15956149,16.53261504,63.69217654,-605.0000721,-1,-1,-1,-1
1.71E+12,128,128,-1,-1,-1,-1,47.15802573,16.53535553,63.69338126,-605.0000721,-1,-1,-1,-1
1.71E+12,128,128,-1,-1,-1,-1,47.15650237,16.5380835,63.69458587,-605.0000721,-1,-1,-1,-1
1.71E+12,128,128,-1,-1,-1,-1,47.15499103,16.54079824,63.69578927,-605.0000721,-1,-1,-1,-1
1.71E+12,128,128,-1,-1,-1,-1,47.15349138,16.54349902,63.6969904,-605.0000721,-1,-1,-1,-1
1.71E+12,128,128,-1,-1,-1,-1,47.15200308,16.54618514,63.69818822,-605.0000721,-1,-1,-1,-1
1.71E+12,128,128,-1,-1,-1,-1,47.15052583,16.54885588,63.69938171,-605.0000721,-1,-1,-1,-1
1.71E+12,128,128,-1,-1,-1,-1,47.14905927,16.55151056,63.70056983,-605.0000721,-1,-1,-1,-1
1.71E+12,128,128,-1,-1,-1,-1,47.14760309,16.55414847,63.70175156,-605.0000721,-1,-1,-1,-1
1.71E+12,128,128,-1,-1,-1,-1,47.14615693,16.55676891,63.70292584,-605.0000721,-1,-1,-1,-1
1.71E+12,128,128,-1,-1,-1,-1,47.14472042,16.55937119,63.70409161,-605.0000721,-1,-1,-1,-1
1.71E+12,128,128,-1,-1,-1,-1,47.14329325,16.56195458,63.70524783,-605.0000721,-1,-1,-1,-1
1.71E+12,128,128,-1,-1,-1,-1,47.14187514,16.56451838,63.70639351,-605.0000721,-1,-1,-1,-1
1.71E+12,128,128,-1,-1,-1,-1,47.14046588,16.56706187,63.70752775,-605.0000721,-1,-1,-1,-1
1.71E+12,128,128,-1,-1,-1,-1,47.13906528,16.56958437,63.70864966,-605.0000721,-1,-1,-1,-1
1.71E+12,128,128,-1,-1,-1,-1,47.13767318,16.57208522,63.7097584,-605.0000721,-1,-1,-1,-1
1.71E+12,128,128,-1,-1,-1,-1,47.13628937,16.57456378,63.71085315,-605.0000721,-1,-1,-1,-1
1.71E+12,128,128,-1,-1,-1,-1,47.13491365,16.57701944,63.71193308,-605.0000721,-1,-1,-1,-1
1.71E+12,128,128,-1,-1,-1,-1,47.13354576,16.57945163,63.71299739,-605.0000721,-1,-1,-1,-1
1.71E+12,128,128,-1,-1,-1,-1,47.13218551,16.58185978,63.71404529,-605.0000721,-1,-1,-1,-1
1.71E+12,128,128,-1,-1,-1,-1,47.1308327,16.58424328,63.71507598,-605.0000721,-1,-1,-1,-1
1.71E+12,128,128,-1,-1,-1,-1,47.12948724,16.58660148,63.71608873,-605.0000721,-1,-1,-1,-1
1.71E+12,128,128,-1,-1,-1,-1,47.12814907,16.58893367,63.71708274,-605.0000721,-1,-1,-1,-1
1.71E+12,128,128,-1,-1,-1,-1,47.12681819,16.59123895,63.71805713,-605.0000721,-1,-1,-1,-1
1.71E+12,128,128,-1,-1,-1,-1,47.12549472,16.59351615,63.71901087,-605.0000721,-1,-1,-1,-1
1.71E+12,128,128,-1,-1,-1,-1,47.1241789,16.59576386,63.71994276,-605.0000721,-1,-1,-1,-1
1.71E+12,128,128,-1,-1,-1,-1,47.12287104,16.59798056,63.7208516,-605.0000721,-1,-1,-1,-1
1.71E+12,128,128,-1,-1,-1,-1,47.12157161,16.60016462,63.72173623,-605.0000721,-1,-1,-1,-1
1.71E+12,128,128,-1,-1,-1,-1,47.12028129,16.60231433,63.72259562,-605.0000721,-1,-1,-1,-1
1.71E+12,128,128,-1,-1,-1,-1,47.11900101,16.60442792,63.72342892,-605.0000721,-1,-1,-1,-1
1.71E+12,128,128,-1,-1,-1,-1,47.11773199,16.60650355,63.72423554,-605.0000721,-1,-1,-1,-1
1.71E+12,128,128,-1,-1,-1,-1,47.11647574,16.60853949,63.72501522,-605.0000721,-1,-1,-1,-1
1.71E+12,128,128,-1,-1,-1,-1,47.11523396,16.61053418,63.72576814,-605.0000721,-1,-1,-1,-1
1.71E+12,128,128,-1,-1,-1,-1,47.11400856,16.61248643,63.72649498,-605.0000721,-1,-1,-1,-1
1.71E+12,128,128,-1,-1,-1,-1,47.11280163,16.61439532,63.72719695,-605.0000721,-1,-1,-1,-1
1.71E+12,128,128,-1,-1,-1,-1,47.11161531,16.61626055,63.72787586,-605.0000721,-1,-1,-1,-1
1.71E+12,128,128,-1,-1,-1,-1,47.11045147,16.61808284,63.72853431,-605.0000721,-1,-1,-1,-1
1.71E+12,128,128,-1,-1,-1,-1,47.10931163,16.61986408,63.72917572,-605.0000721,-1,-1,-1,-1
1.71E+12,128,128,-1,-1,-1,-1,47.10819664,16.6216078,63.72980443,-605.0000721,-1,-1,-1,-1
1.71E+12,128,128,-1,-1,-1,-1,47.10710665,16.62331889,63.73042555,-605.0000721,-1,-1,-1,-1
1.71E+12,128,128,-1,-1,-1,-1,47.10604156,16.62500272,63.73104428,-605.0000721,-1,-1,-1,-1
1.71E+12,128,128,-1,-1,-1,-1,47.1050011,16.62666454,63.73166563,-605.0000721,-1,-1,-1,-1
1.71E+12,128,128,-1,-1,-1,-1,47.10398486,16.62830941,63.73229427,-605.0000721,-1,-1,-1,-1
1.71E+12,128,128,-1,-1,-1,-1,47.10299237,16.62994195,63.73293432,-605.0000721,-1,-1,-1,-1
1.71E+12,128,128,-1,-1,-1,-1,47.10202305,16.63156619,63.73358924,-605.0000721,-1,-1,-1,-1
1.71E+12,128,128,-1,-1,-1,-1,47.10107616,16.63318584,63.734262,-605.0000721,-1,-1,-1,-1
1.71E+12,128,128,-1,-1,-1,-1,47.10015073,16.63480455,63.73495527,-605.0000721,-1,-1,-1,-1
1.71E+12,128,128,-1,-1,-1,-1,47.09924578,16.63642582,63.73567161,-605.0000721,-1,-1,-1,-1
1.71E+12,128,128,-1,-1,-1,-1,47.09836046,16.63805294,63.7364134,-605.0000721,-1,-1,-1,-1
1.71E+12,128,128,-1,-1,-1,-1,47.09749389,16.63968899,63.73718287,-605.0000721,-1,-1,-1,-1
1.71E+12,128,128,-1,-1,-1,-1,47.09664525,16.64133686,63.73798211,-605.0000721,-1,-1,-1,-1
1.71E+12,128,128,-1,-1,-1,-1,47.09581387,16.6429993,63.73881316,-605.0000721,-1,-1,-1,-1
1.71E+12,128,128,-1,-1,-1,-1,47.09499925,16.6446789,63.73967815,-605.0000721,-1,-1,-1,-1
1.71E+12,128,128,-1,-1,-1,-1,47.09420117,16.64637817,63.74057934,-605.0000721,-1,-1,-1,-1
1.71E+12,128,128,-1,-1,-1,-1,47.09341968,16.64809958,63.74151926,-605.0000721,-1,-1,-1,-1
1.71E+12,128,128,-1,-1,-1,-1,47.09265517,16.6498456,63.74250078,-605.0000721,-1,-1,-1,-1
1.71E+12,128,128,-1,-1,-1,-1,47.09190815,16.65161885,63.743527,-605.0000721,-1,-1,-1,-1
1.71E+12,128,128,-1,-1,-1,-1,47.09117913,16.65342206,63.74460119,-605.0000721,-1,-1,-1,-1
1.71E+12,128,128,-1,-1,-1,-1,47.09046853,16.65525812,63.74572665,-605.0000721,-1,-1,-1,-1
1.71E+12,128,128,-1,-1,-1,-1,47.08977665,16.65713006,63.7469067,-605.0000721,-1,-1,-1,-1
1.71E+12,128,128,-1,-1,-1,-1,47.08910364,16.65904104,63.74814468,-605.0000721,-1,-1,-1,-1
1.71E+12,128,128,-1,-1,-1,-1,47.08844954,16.66099437,63.74944392,-605.0000721,-1,-1,-1,-1
1.71E+12,128,128,-1,-1,-1,-1,47.08781432,16.6629935,63.75080782,-605.0000721,-1,-1,-1,-1
1.71E+12,128,128,-1,-1,-1,-1,47.08719785,16.66504197,63.75223982,-605.0000721,-1,-1,-1,-1
1.71E+12,128,128,-1,-1,-1,-1,47.08659994,16.66714342,63.75374336,-605.0000721,-1,-1,-1,-1
1.71E+12,128,128,-1,-1,-1,-1,47.08602031,16.66930158,63.7553219,-605.0000721,-1,-1,-1,-1
1.71E+12,128,128,-1,-1,-1,-1,47.08545858,16.67152024,63.75697882,-605.0000721,-1,-1,-1,-1
1.71E+12,128,128,-1,-1,-1,-1,47.08491426,16.67380317,63.75871743,-605.0000721,-1,-1,-1,-1
1.71E+12,128,128,-1,-1,-1,-1,47.08438677,16.67615414,63.76054091,-605.0000721,-1,-1,-1,-1
1.71E+12,128,128,-1,-1,-1,-1,47.08387544,16.67857683,63.76245227,-605.0000721,-1,-1,-1,-1
1.71E+12,128,128,-1,-1,-1,-1,47.08337953,16.68107488,63.76445441,-605.0000721,-1,-1,-1,-1
1.71E+12,128,128,-1,-1,-1,-1,47.08289827,16.68365184,63.7665501,-605.0000721,-1,-1,-1,-1
1.71E+12,128,128,-1,-1,-1,-1,47.08243086,16.68631117,63.76874203,-605.0000721,-1,-1,-1,-1
1.71E+12,128,128,-1,-1,-1,-1,47.08197649,16.68905622,63.77103272,-605.0000721,-1,-1,-1,-1
1.71E+12,128,128,-1,-1,-1,-1,47.08153431,16.69189022,63.77342453,-605.0000721,-1,-1,-1,-1
1.71E+12,128,128,-1,-1,-1,-1,47.08110338,16.69481621,63.77591959,-605.0000721,-1,-1,-1,-1
1.71E+12,128,128,-1,-1,-1,-1,47.08068271,16.69783708,63.77851979,-605.0000721,-1,-1,-1,-1
1.71E+12,128,128,-1,-1,-1,-1,47.08027123,16.7009555,63.78122674,-605.0000721,-1,-1,-1,-1
1.71E+12,128,128,-1,-1,-1,-1,47.07986783,16.70417396,63.7840418,-605.0000721,-1,-1,-1,-1
1.71E+12,128,128,-1,-1,-1,-1,47.07947139,16.70749469,63.78696608,-605.0000721,-1,-1,-1,-1
1.71E+12,128,128,-1,-1,-1,-1,47.07908079,16.71091969,63.79000048,-605.0000721,-1,-1,-1,-1
1.71E+12,128,128,-1,-1,-1,-1,47.07869493,16.71445071,63.79314564,-605.0000721,-1,-1,-1,-1
1.71E+12,128,128,-1,-1,-1,-1,47.07831273,16.71808925,63.79640198,-605.0000721,-1,-1,-1,-1
1.71E+12,128,128,-1,-1,-1,-1,47.07793309,16.72183649,63.79976957,-605.0000721,-1,-1,-1,-1
1.71E+12,128,128,-1,-1,-1,-1,47.07755489,16.72569333,63.80324823,-605.0000721,-1,-1,-1,-1
1.71E+12,128,128,-1,-1,-1,-1,47.07717701,16.7296604,63.80683741,-605.0000721,-1,-1,-1,-1
1.71E+12,128,128,-1,-1,-1,-1,47.07679828,16.73373797,63.81053625,-605.0000721,-1,-1,-1,-1
1.71E+12,128,128,-1,-1,-1,-1,47.07641757,16.73792598,63.81434355,-605.0000721,-1,-1,-1,-1
1.71E+12,128,128,-1,-1,-1,-1,47.07603381,16.74222405,63.81825785,-605.0000721,-1,-1,-1,-1
1.71E+12,128,128,-1,-1,-1,-1,47.07564597,16.74663144,63.82227741,-605.0000721,-1,-1,-1,-1
1.71E+12,128,128,-1,-1,-1,-1,47.07525311,16.75114711,63.82640022,-605.0000721,-1,-1,-1,-1
1.71E+12,128,128,-1,-1,-1,-1,47.07485438,16.75576962,63.830624,-605.0000721,-1,-1,-1,-1
1.71E+12,128,128,-1,-1,-1,-1,47.07444898,16.76049717,63.83494615,-605.0000721,-1,-1,-1,-1
1.71E+12,128,128,-1,-1,-1,-1,47.07403615,16.76532762,63.83936377,-605.0000721,-1,-1,-1,-1
1.71E+12,128,128,-1,-1,-1,-1,47.0736152,16.77025846,63.84387366,-605.0000721,-1,-1,-1,-1
1.71E+12,128,128,-1,-1,-1,-1,47.07318549,16.77528684,63.84847233,-605.0000721,-1,-1,-1,-1
1.71E+12,128,128,-1,-1,-1,-1,47.07274648,16.78040954,63.85315602,-605.0000721,-1,-1,-1,-1
1.71E+12,128,128,-1,-1,-1,-1,47.07229774,16.78562296,63.8579207,-605.0000721,-1,-1,-1,-1
1.71E+12,128,128,-1,-1,-1,-1,47.07183897,16.79092317,63.86276214,-605.0000721,-1,-1,-1,-1
1.71E+12,128,128,-1,-1,-1,-1,47.07137,16.79630587,63.86767587,-605.0000721,-1,-1,-1,-1
1.71E+12,128,128,-1,-1,-1,-1,47.07089074,16.80176647,63.87265721,-605.0000721,-1,-1,-1,-1
1.71E+12,128,128,-1,-1,-1,-1,47.0704012,16.80730006,63.87770127,-605.0000721,-1,-1,-1,-1
1.71E+12,128,128,-1,-1,-1,-1,47.06990147,16.81290144,63.8828029,-605.0000721,-1,-1,-1,-1
1.71E+12,128,128,-1,-1,-1,-1,47.0693917,16.81856508,63.88795677,-605.0000721,-1,-1,-1,-1
1.71E+12,128,128,-1,-1,-1,-1,47.06887218,16.82428519,63.89315736,-605.0000721,-1,-1,-1,-1
1.71E+12,128,128,-1,-1,-1,-1,47.06834333,16.83005568,63.89839902,-605.0000721,-1,-1,-1,-1
1.71E+12,128,128,-1,-1,-1,-1,47.06780575,16.83587023,63.90367598,-605.0000721,-1,-1,-1,-1
1.71E+12,128,128,-1,-1,-1,-1,47.06726019,16.84172223,63.90898242,-605.0000721,-1,-1,-1,-1
1.71E+12,128,128,-1,-1,-1,-1,47.06670754,16.84760489,63.91431243,-605.0000721,-1,-1,-1,-1
1.71E+12,128,128,-1,-1,-1,-1,47.06614883,16.85351123,63.91966006,-605.0000721,-1,-1,-1,-1
1.71E+12,128,128,-1,-1,-1,-1,47.06558517,16.85943411,63.92501928,-605.0000721,-1,-1,-1,-1
1.71E+12,128,128,-1,-1,-1,-1,47.06501774,16.86536622,63.93038396,-605.0000721,-1,-1,-1,-1
1.71E+12,128,128,-1,-1,-1,-1,47.06444784,16.87130011,63.93574796,-605.0000721,-1,-1,-1,-1
1.71E+12,128,128,-1,-1,-1,-1,47.0638769,16.87722823,63.94110513,-605.0000721,-1,-1,-1,-1
1.71E+12,128,128,-1,-1,-1,-1,47.06330651,16.88314288,63.94644939,-605.0000721,-1,-1,-1,-1
1.71E+12,128,128,-1,-1,-1,-1,47.06273841,16.88903632,63.95177472,-605.0000721,-1,-1,-1,-1
1.71E+12,128,128,-1,-1,-1,-1,47.06217446,16.89490071,63.95707517,-605.0000721,-1,-1,-1,-1
1.71E+12,128,128,-1,-1,-1,-1,47.06161662,16.90072824,63.96234485,-605.0000721,-1,-1,-1,-1
1.71E+12,128,128,-1,-1,-1,-1,47.06106693,16.90651103,63.96757796,-605.0000721,-1,-1,-1,-1
1.71E+12,128,128,-1,-1,-1,-1,47.06052753,16.91224125,63.97276878,-605.0000721,-1,-1,-1,-1
1.71E+12,128,128,-1,-1,-1,-1,47.06000061,16.91791111,63.97791172,-605.0000721,-1,-1,-1,-1
1.71E+12,128,128,-1,-1,-1,-1,47.05948848,16.92351288,63.98300136,-605.0000721,-1,-1,-1,-1
1.71E+12,128,128,-1,-1,-1,-1,47.05899359,16.92903888,63.98803248,-605.0000721,-1,-1,-1,-1
1.71E+12,128,128,-1,-1,-1,-1,47.05851852,16.93448157,63.99300009,-605.0000721,-1,-1,-1,-1
1.71E+12,128,128,-1,-1,-1,-1,47.05806592,16.93983354,63.99789946,-605.0000721,-1,-1,-1,-1
1.71E+12,128,128,-1,-1,-1,-1,47.05763859,16.9450875,64.00272609,-605.0000721,-1,-1,-1,-1
1.71E+12,128,128,-1,-1,-1,-1,47.05723935,16.95023638,64.00747573,-605.0000721,-1,-1,-1,-1
