Shimmer_89F4_TimestampSync_Unix_CAL,Shimmer_89F4_ECG_EMG_Status1_LPF_CAL,Shimmer_89F4_ECG_EMG_Status2_LPF_CAL,Shimmer_89F4_ECG_IBI_LA_RA_LPF_CAL,Shimmer_89F4_ECG_IBI_LL_LA_LPF_CAL,Shimmer_89F4_ECG_IBI_LL_RA_LPF_CAL,Shimmer_89F4_ECG_IBI_Vx_RL_LPF_CAL,Shimmer_89F4_ECG_LA_RA_24BIT_LPF_CAL,Shimmer_89F4_ECG_LL_LA_24BIT_LPF_CAL,Shimmer_89F4_ECG_LL_RA_24BIT_LPF_CAL,Shimmer_89F4_ECG_Vx_RL_24BIT_LPF_CAL,Shimmer_89F4_ECGtoHR_LA_RA_LPF_CAL,Shimmer_89F4_ECGtoHR_LL_LA_LPF_CAL,Shimmer_89F4_ECGtoHR_LL_RA_LPF_CAL,Shimmer_89F4_ECGtoHR_Vx_RL_LPF_CAL
1.71E+12,128,128,-1,-1,-1,-1,-4.236712961,-23.23708394,-27.4737969,-18.46436303,-1,-1,-1,-1
1.71E+12,128,128,-1,-1,-1,-1,-4.236712961,-23.23708394,-27.4737969,-18.46436303,-1,-1,-1,-1
1.71E+12,128,128,-1,-1,-1,-1,-4.236713,-23.23708391,-27.47379691,-18.46436301,-1,-1,-1,-1
1.71E+12,128,128,-1,-1,-1,-1,-4.236713165,-23.23708377,-27.47379694,-18.46436294,-1,-1,-1,-1
1.71E+12,128,128,-1,-1,-1,-1,-4.23671354,-23.23708347,-27.47379701,-18.46436281,-1,-1,-1,-1
1.71E+12,128,128,-1,-1,-1,-1,-4.236714196,-23.23708293,-27.47379713,-18.46436259,-1,-1,-1,-1
1.71E+12,128,128,-1,-1,-1,-1,-4.236715211,-23.23708209,-27.4737973,-18.46436224,-1,-1,-1,-1
1.71E+12,128,128,-1,-1,-1,-1,-4.236716645,-23.23708093,-27.47379758,-18.46436171,-1,-1,-1,-1
1.71E+12,128,128,-1,-1,-1,-1,-4.236718512,-23.23707947,-27.47379798,-18.46436099,-1,-1,-1,-1
1.71E+12,128,128,-1,-1,-1,-1,-4.236720797,-23.2370777,-27.4737985,-18.4643601,-1,-1,-1,-1
1.71E+12,128,128,-1,-1,-1,-1,-4.23672347,-23.23707565,-27.47379912,-18.46435905,-1,-1,-1,-1
1.71E+12,128,128,-1,-1,-1,-1,-4.236726463,-23.23707329,-27.47379975,-18.46435783,-1,-1,-1,-1
1.71E+12,128,128,-1,-1,-1,-1,-4.236729674,-23.23707059,-27.47380026,-18.46435642,-1,-1,-1,-1
1.71E+12,128,128,-1,-1,-1,-1,-4.236732974,-23.23706751,-27.47380049,-18.46435482,-1,-1,-1,-1
1.71E+12,128,128,-1,-1,-1,-1,-4.236736225,-23.23706403,-27.47380025,-18.464353,-1,-1,-1,-1
1.71E+12,128,128,-1,-1,-1,-1,-4.236739314,-23.23706012,-27.47379943,-18.46435092,-1,-1,-1,-1
1.71E+12,128,128,-1,-1,-1,-1,-4.236742158,-23.23705578,-27.47379794,-18.46434857,-1,-1,-1,-1
1.71E+12,128,128,-1,-1,-1,-1,-4.236744684,-23.237051,-27.47379569,-18.46434596,-1,-1,-1,-1
1.71E+12,128,128,-1,-1,-1,-1,-4.236746823,-23.23704578,-27.4737926,-18.46434305,-1,-1,-1,-1
1.71E+12,128,128,-1,-1,-1,-1,-4.236748463,-23.23704005,-27.47378851,-18.46433982,-1,-1,-1,-1
1.71E+12,128,128,-1,-1,-1,-1,-4.236749441,-23.2370337,-27.47378314,-18.46433626,-1,-1,-1,-1
1.71E+12,128,128,-1,-1,-1,-1,-4.236749628,-23.23702659,-27.47377622,-18.46433233,-1,-1,-1,-1
1.71E+12,128,128,-1,-1,-1,-1,-4.236748978,-23.2370186,-27.47376758,-18.46432797,-1,-1,-1,-1
1.71E+12,128,128,-1,-1,-1,-1,-4.236747521,-23.23700963,-27.47375715,-18.46432317,-1,-1,-1,-1
1.71E+12,128,128,-1,-1,-1,-1,-4.236745338,-23.23699959,-27.47374493,-18.46431793,-1,-1,-1,-1
1.71E+12,128,128,-1,-1,-1,-1,-4.236742518,-23.23698841,-27.47373093,-18.46431226,-1,-1,-1,-1
1.71E+12,128,128,-1,-1,-1,-1,-4.236739129,-23.236976,-27.47371512,-18.46430617,-1,-1,-1,-1
1.71E+12,128,128,-1,-1,-1,-1,-4.2367352,-23.23696227,-27.47369747,-18.46429966,-1,-1,-1,-1
1.71E+12,128,128,-1,-1,-1,-1,-4.236730705,-23.23694712,-27.47367783,-18.46429272,-1,-1,-1,-1
1.71E+12,128,128,-1,-1,-1,-1,-4.236725526,-23.23693044,-27.47365596,-18.46428534,-1,-1,-1,-1
1.71E+12,128,128,-1,-1,-1,-1,-4.236719489,-23.2369121,-27.47363159,-18.46427752,-1,-1,-1,-1
1.71E+12,128,128,-1,-1,-1,-1,-4.236712406,-23.23689199,-27.47360439,-18.46426921,-1,-1,-1,-1
1.71E+12,128,128,-1,-1,-1,-1,-4.236704098,-23.23687,-27.47357409,-18.4642604,-1,-1,-1,-1
1.71E+12,128,128,-1,-1,-1,-1,-4.236694395,-23.23684603,-27.47354042,-18.46425108,-1,-1,-1,-1
1.71E+12,128,128,-1,-1,-1,-1,-4.2366831,-23.23682,-27.4735031,-18.46424123,-1,-1,-1,-1
1.71E+12,128,128,-1,-1,-1,-1,-4.236669978,-23.23679183,-27.47346181,-18.46423085,-1,-1,-1,-1
1.71E+12,128,128,-1,-1,-1,-1,-4.23665478,-23.23676141,-27.47341619,-18.46421998,-1,-1,-1,-1
1.71E+12,128,128,-1,-1,-1,-1,-4.236637244,-23.23672861,-27.47336585,-18.4642086,-1,-1,-1,-1
1.71E+12,128,128,-1,-1,-1,-1,-4.236617103,-23.23669327,-27.47331037,-18.46419672,-1,-1,-1,-1
1.71E+12,128,128,-1,-1,-1,-1,-4.236594112,-23.23665525,-27.47324936,-18.46418433,-1,-1,-1,-1
1.71E+12,128,128,-1,-1,-1,-1,-4.236568043,-23.23661442,-27.47318246,-18.46417145,-1,-1,-1,-1
1.71E+12,128,128,-1,-1,-1,-1,-4.23653867,-23.23657063,-27.4731093,-18.46415808,-1,-1,-1,-1
1.71E+12,128,128,-1,-1,-1,-1,-4.236505746,-23.23652375,-27.47302949,-18.46414425,-1,-1,-1,-1
1.71E+12,128,128,-1,-1,-1,-1,-4.236469004,-23.23647368,-27.47294268,-18.46412994,-1,-1,-1,-1
1.71E+12,128,128,-1,-1,-1,-1,-4.23642816,-23.23642027,-27.47284843,-18.46411517,-1,-1,-1,-1
1.71E+12,128,128,-1,-1,-1,-1,-4.236382902,-23.23636336,-27.47274626,-18.46409996,-1,-1,-1,-1
1.71E+12,128,128,-1,-1,-1,-1,-4.236332861,-23.23630271,-27.47263557,-18.46408435,-1,-1,-1,-1
1.71E+12,128,128,-1,-1,-1,-1,-4.236277624,-23.2362381,-27.47251573,-18.46406836,-1,-1,-1,-1
1.71E+12,128,128,-1,-1,-1,-1,-4.23621677,-23.23616932,-27.47238609,-18.46405198,-1,-1,-1,-1
1.71E+12,128,128,-1,-1,-1,-1,-4.236149904,-23.23609617,-27.47224608,-18.4640352,-1,-1,-1,-1
1.71E+12,128,128,-1,-1,-1,-1,-4.236076665,-23.23601847,-27.47209513,-18.46401805,-1,-1,-1,-1
1.71E+12,128,128,-1,-1,-1,-1,-4.235996704,-23.23593601,-27.47193271,-18.46400058,-1,-1,-1,-1
1.71E+12,128,128,-1,-1,-1,-1,-4.235909656,-23.23584857,-27.47175823,-18.4639828,-1,-1,-1,-1
1.71E+12,128,128,-1,-1,-1,-1,-4.235815091,-23.23575589,-27.47157099,-18.46396474,-1,-1,-1,-1
1.71E+12,128,128,-1,-1,-1,-1,-4.235712502,-23.2356577,-27.47137021,-18.46394643,-1,-1,-1,-1
1.71E+12,128,128,-1,-1,-1,-1,-4.23560133,-23.23555371,-27.47115504,-18.4639279,-1,-1,-1,-1
1.71E+12,128,128,-1,-1,-1,-1,-4.235480994,-23.23544363,-27.47092462,-18.46390916,-1,-1,-1,-1
1.71E+12,128,128,-1,-1,-1,-1,-4.235350909,-23.23532722,-27.47067812,-18.46389025,-1,-1,-1,-1
1.71E+12,128,128,-1,-1,-1,-1,-4.235210478,-23.23520423,-27.47041471,-18.46387123,-1,-1,-1,-1
1.71E+12,128,128,-1,-1,-1,-1,-4.235059109,-23.23507445,-27.47013356,-18.46385218,-1,-1,-1,-1
1.71E+12,128,128,-1,-1,-1,-1,-4.234896231,-23.23493758,-27.46983381,-18.46383321,-1,-1,-1,-1
1.71E+12,128,128,-1,-1,-1,-1,-4.234721307,-23.23479332,-27.46951462,-18.46381439,-1,-1,-1,-1
1.71E+12,128,128,-1,-1,-1,-1,-4.234533823,-23.2346413,-27.46917512,-18.46379582,-1,-1,-1,-1
1.71E+12,128,128,-1,-1,-1,-1,-4.234333243,-23.23448114,-27.46881439,-18.46377755,-1,-1,-1,-1
1.71E+12,128,128,-1,-1,-1,-1,-4.23411897,-23.23431245,-27.46843142,-18.46375963,-1,-1,-1,-1
1.71E+12,128,128,-1,-1,-1,-1,-4.23389038,-23.23413483,-27.46802521,-18.4637421,-1,-1,-1,-1
1.71E+12,128,128,-1,-1,-1,-1,-4.233646867,-23.23394789,-27.46759475,-18.46372506,-1,-1,-1,-1
1.71E+12,128,128,-1,-1,-1,-1,-4.233387858,-23.23375126,-27.46713912,-18.46370859,-1,-1,-1,-1
1.71E+12,128,128,-1,-1,-1,-1,-4.23311283,-23.23354457,-27.4666574,-18.46369281,-1,-1,-1,-1
1.71E+12,128,128,-1,-1,-1,-1,-4.232821291,-23.23332741,-27.4661487,-18.46367785,-1,-1,-1,-1
1.71E+12,128,128,-1,-1,-1,-1,-4.232512752,-23.23309939,-27.46561214,-18.4636638,-1,-1,-1,-1
1.71E+12,128,128,-1,-1,-1,-1,-4.232186709,-23.23286005,-27.46504676,-18.46365078,-1,-1,-1,-1
1.71E+12,128,128,-1,-1,-1,-1,-4.231842619,-23.23260893,-27.46445155,-18.46363891,-1,-1,-1,-1
1.71E+12,128,128,-1,-1,-1,-1,-4.231479898,-23.23234559,-27.46382549,-18.4636283,-1,-1,-1,-1
1.71E+12,128,128,-1,-1,-1,-1,-4.23109792,-23.23206967,-27.46316759,-18.4636191,-1,-1,-1,-1
1.71E+12,128,128,-1,-1,-1,-1,-4.230696047,-23.23178083,-27.46247688,-18.46361149,-1,-1,-1,-1
1.71E+12,128,128,-1,-1,-1,-1,-4.230273674,-23.23147871,-27.46175238,-18.4636056,-1,-1,-1,-1
1.71E+12,128,128,-1,-1,-1,-1,-4.229830195,-23.23116293,-27.46099312,-18.46360156,-1,-1,-1,-1
1.71E+12,128,128,-1,-1,-1,-1,-4.229364975,-23.23083311,-27.46019809,-18.4635995,-1,-1,-1,-1
1.71E+12,128,128,-1,-1,-1,-1,-4.228877359,-23.23048888,-27.45936624,-18.46359955,-1,-1,-1,-1
1.71E+12,128,128,-1,-1,-1,-1,-4.228366691,-23.23012985,-27.45849654,-18.46360183,-1,-1,-1,-1
1.71E+12,128,128,-1,-1,-1,-1,-4.227832368,-23.22975564,-27.45758801,-18.46360648,-1,-1,-1,-1
1.71E+12,128,128,-1,-1,-1,-1,-4.227273891,-23.22936593,-27.45663982,-18.46361367,-1,-1,-1,-1
1.71E+12,128,128,-1,-1,-1,-1,-4.226690873,-23.22896042,-27.4556513,-18.46362359,-1,-1,-1,-1
1.71E+12,128,128,-1,-1,-1,-1,-4.226082993,-23.22853887,-27.45462186,-18.46363638,-1,-1,-1,-1
1.71E+12,128,128,-1,-1,-1,-1,-4.225449956,-23.22810102,-27.45355098,-18.4636522,-1,-1,-1,-1
1.71E+12,128,128,-1,-1,-1,-1,-4.224791481,-23.22764667,-27.45243816,-18.46367122,-1,-1,-1,-1
1.71E+12,128,128,-1,-1,-1,-1,-4.224107302,-23.22717564,-27.45128294,-18.4636936,-1,-1,-1,-1
1.71E+12,128,128,-1,-1,-1,-1,-4.223397174,-23.22668772,-27.45008489,-18.46371948,-1,-1,-1,-1
1.71E+12,128,128,-1,-1,-1,-1,-4.222660892,-23.22618268,-27.44884357,-18.46374901,-1,-1,-1,-1
1.71E+12,128,128,-1,-1,-1,-1,-4.221898289,-23.22566034,-27.44755863,-18.46378235,-1,-1,-1,-1
1.71E+12,128,128,-1,-1,-1,-1,-4.221109259,-23.22512058,-27.44622984,-18.46381965,-1,-1,-1,-1
1.71E+12,128,128,-1,-1,-1,-1,-4.220293776,-23.2245633,-27.44485708,-18.4638611,-1,-1,-1,-1
1.71E+12,128,128,-1,-1,-1,-1,-4.219451877,-23.22398849,-27.44344037,-18.46390687,-1,-1,-1,-1
1.71E+12,128,128,-1,-1,-1,-1,-4.218583603,-23.22339617,-27.44197977,-18.46395716,-1,-1,-1,-1
1.71E+12,128,128,-1,-1,-1,-1,-4.217689022,-23.22278637,-27.4404754,-18.46401216,-1,-1,-1,-1
1.71E+12,128,128,-1,-1,-1,-1,-4.216768244,-23.22215911,-27.43892736,-18.46407205,-1,-1,-1,-1
1.71E+12,128,128,-1,-1,-1,-1,-4.215821431,-23.2215144,-27.43733583,-18.46413696,-1,-1,-1,-1
1.71E+12,128,128,-1,-1,-1,-1,-4.214848808,-23.22085226,-27.43570107,-18.46420704,-1,-1,-1,-1
1.71E+12,128,128,-1,-1,-1,-1,-4.213850674,-23.22017279,-27.43402346,-18.46428246,-1,-1,-1,-1
1.71E+12,128,128,-1,-1,-1,-1,-4.212827413,-23.21947608,-27.43230349,-18.46436338,-1,-1,-1,-1
1.71E+12,128,128,-1,-1,-1,-1,-4.211779494,-23.21876232,-27.43054182,-18.46445001,-1,-1,-1,-1
1.71E+12,128,128,-1,-1,-1,-1,-4.21070749,-23.21803174,-27.42873923,-18.46454259,-1,-1,-1,-1
1.71E+12,128,128,-1,-1,-1,-1,-4.209612109,-23.21728459,-27.4268967,-18.46464133,-1,-1,-1,-1
1.71E+12,128,128,-1,-1,-1,-1,-4.208494147,-23.21652114,-27.42501529,-18.46474643,-1,-1,-1,-1
1.71E+12,128,128,-1,-1,-1,-1,-4.207354438,-23.21574171,-27.42309615,-18.46485807,-1,-1,-1,-1
1.71E+12,128,128,-1,-1,-1,-1,-4.206193868,-23.21494665,-27.42114051,-18.46497641,-1,-1,-1,-1
1.71E+12,128,128,-1,-1,-1,-1,-4.205013355,-23.21413634,-27.41914969,-18.46510163,-1,-1,-1,-1
1.71E+12,128,128,-1,-1,-1,-1,-4.203813834,-23.21331126,-27.4171251,-18.46523388,-1,-1,-1,-1
1.71E+12,128,128,-1,-1,-1,-1,-4.202596281,-23.21247198,-27.41506826,-18.46537338,-1,-1,-1,-1
1.71E+12,128,128,-1,-1,-1,-1,-4.20136172,-23.21161908,-27.4129808,-18.46552034,-1,-1,-1,-1
1.71E+12,128,128,-1,-1,-1,-1,-4.200111235,-23.2107532,-27.41086444,-18.46567493,-1,-1,-1,-1
1.71E+12,128,128,-1,-1,-1,-1,-4.198845992,-23.209875,-27.40872099,-18.46583734,-1,-1,-1,-1
1.71E+12,128,128,-1,-1,-1,-1,-4.197567218,-23.20898511,-27.40655233,-18.46600773,-1,-1,-1,-1
1.71E+12,128,128,-1,-1,-1,-1,-4.19627619,-23.20808418,-27.40436037,-18.46618624,-1,-1,-1,-1
1.71E+12,128,128,-1,-1,-1,-1,-4.194974241,-23.20717289,-27.40214713,-18.46637298,-1,-1,-1,-1
1.71E+12,128,128,-1,-1,-1,-1,-4.193662787,-23.206252,-27.39991479,-18.46656807,-1,-1,-1,-1
1.71E+12,128,128,-1,-1,-1,-1,-4.192343331,-23.20532231,-27.39766564,-18.46677167,-1,-1,-1,-1
1.71E+12,128,128,-1,-1,-1,-1,-4.191017468,-23.20438471,-27.39540218,-18.46698391,-1,-1,-1,-1
1.71E+12,128,128,-1,-1,-1,-1,-4.18968688,-23.20344014,-27.39312702,-18.46720491,-1,-1,-1,-1
1.71E+12,128,128,-1,-1,-1,-1,-4.188353308,-23.20248955,-27.39084286,-18.4674348,-1,-1,-1,-1
1.71E+12,128,128,-1,-1,-1,-1,-4.187018516,-23.20153391,-27.38855242,-18.46767371,-1,-1,-1,-1
1.71E+12,128,128,-1,-1,-1,-1,-4.185684276,-23.20057416,-27.38625844,-18.46792177,-1,-1,-1,-1
1.71E+12,128,128,-1,-1,-1,-1,-4.184352382,-23.1996113,-27.38396369,-18.46817906,-1,-1,-1,-1
1.71E+12,128,128,-1,-1,-1,-1,-4.183024665,-23.1986464,-27.38167107,-18.46844568,-1,-1,-1,-1
1.71E+12,128,128,-1,-1,-1,-1,-4.181703006,-23.1976806,-27.37938361,-18.46872167,-1,-1,-1,-1
1.71E+12,128,128,-1,-1,-1,-1,-4.180389308,-23.19671511,-27.37710442,-18.46900711,-1,-1,-1,-1
1.71E+12,128,128,-1,-1,-1,-1,-4.179085507,-23.19575117,-27.37483668,-18.46930206,-1,-1,-1,-1
1.71E+12,128,128,-1,-1,-1,-1,-4.177793573,-23.19479006,-27.37258363,-18.46960653,-1,-1,-1,-1
1.71E+12,128,128,-1,-1,-1,-1,-4.176515474,-23.19383307,-27.37034855,-18.46992056,-1,-1,-1,-1
1.71E+12,128,128,-1,-1,-1,-1,-4.175253169,-23.19288152,-27.36813469,-18.47024422,-1,-1,-1,-1
1.71E+12,128,128,-1,-1,-1,-1,-4.174008599,-23.19193666,-27.36594526,-18.47057756,-1,-1,-1,-1
1.71E+12,128,128,-1,-1,-1,-1,-4.172783677,-23.19099974,-27.36378342,-18.47092059,-1,-1,-1,-1
1.71E+12,128,128,-1,-1,-1,-1,-4.171580296,-23.19007202,-27.36165232,-18.47127331,-1,-1,-1,-1
1.71E+12,128,128,-1,-1,-1,-1,-4.170400354,-23.18915481,-27.35955517,-18.4716357,-1,-1,-1,-1
1.71E+12,128,128,-1,-1,-1,-1,-4.169245748,-23.18824947,-27.35749521,-18.47200772,-1,-1,-1,-1
1.71E+12,128,128,-1,-1,-1,-1,-4.168118402,-23.18735733,-27.35547573,-18.47238936,-1,-1,-1,-1
1.71E+12,128,128,-1,-1,-1,-1,-4.16702028,-23.18647972,-27.3535,-18.47278059,-1,-1,-1,-1
1.71E+12,128,128,-1,-1,-1,-1,-4.165953337,-23.18561793,-27.35157127,-18.47318133,-1,-1,-1,-1
1.71E+12,128,128,-1,-1,-1,-1,-4.164919447,-23.18477325,-27.3496927,-18.47359153,-1,-1,-1,-1
1.71E+12,128,128,-1,-1,-1,-1,-4.163920401,-23.18394694,-27.34786734,-18.4740111,-1,-1,-1,-1
1.71E+12,128,128,-1,-1,-1,-1,-4.162957966,-23.18314028,-27.34609824,-18.47443993,-1,-1,-1,-1
1.71E+12,128,128,-1,-1,-1,-1,-4.16203388,-23.18235452,-27.34438839,-18.47487792,-1,-1,-1,-1
1.71E+12,128,128,-1,-1,-1,-1,-4.161149851,-23.18159093,-27.34274078,-18.47532496,-1,-1,-1,-1
1.71E+12,128,128,-1,-1,-1,-1,-4.16030753,-23.18085079,-27.34115832,-18.47578098,-1,-1,-1,-1
1.71E+12,128,128,-1,-1,-1,-1,-4.159508479,-23.18013538,-27.33964386,-18.47624588,-1,-1,-1,-1
1.71E+12,128,128,-1,-1,-1,-1,-4.15875417,-23.17944593,-27.3382001,-18.47671957,-1,-1,-1,-1
1.71E+12,128,128,-1,-1,-1,-1,-4.15804601,-23.17878362,-27.33682963,-18.47720191,-1,-1,-1,-1
1.71E+12,128,128,-1,-1,-1,-1,-4.157385361,-23.17814951,-27.33553487,-18.47769277,-1,-1,-1,-1
1.71E+12,128,128,-1,-1,-1,-1,-4.156773546,-23.17754462,-27.33431816,-18.47819202,-1,-1,-1,-1
1.71E+12,128,128,-1,-1,-1,-1,-4.156211889,-23.17696993,-27.33318182,-18.47869944,-1,-1,-1,-1
1.71E+12,128,128,-1,-1,-1,-1,-4.155701723,-23.1764264,-27.33212812,-18.47921484,-1,-1,-1,-1
1.71E+12,128,128,-1,-1,-1,-1,-4.155244304,-23.17591494,-27.33115925,-18.47973797,-1,-1,-1,-1
1.71E+12,128,128,-1,-1,-1,-1,-4.154840749,-23.17543644,-27.33027719,-18.48026865,-1,-1,-1,-1
1.71E+12,128,128,-1,-1,-1,-1,-4.154492073,-23.17499172,-27.32948379,-18.48080665,-1,-1,-1,-1
1.71E+12,128,128,-1,-1,-1,-1,-4.154199202,-23.17458157,-27.32878077,-18.48135176,-1,-1,-1,-1
1.71E+12,128,128,-1,-1,-1,-1,-4.153962951,-23.17420671,-27.32816966,-18.48190374,-1,-1,-1,-1
1.71E+12,128,128,-1,-1,-1,-1,-4.153783978,-23.17386778,-27.32765176,-18.48246235,-1,-1,-1,-1
1.71E+12,128,128,-1,-1,-1,-1,-4.15366276,-23.1735654,-27.32722816,-18.48302732,-1,-1,-1,-1
1.71E+12,128,128,-1,-1,-1,-1,-4.153599609,-23.17330018,-27.32689979,-18.48359838,-1,-1,-1,-1
1.71E+12,128,128,-1,-1,-1,-1,-4.153594733,-23.17307269,-27.32666742,-18.48417526,-1,-1,-1,-1
1.71E+12,128,128,-1,-1,-1,-1,-4.153648311,-23.17288347,-27.32653178,-18.48475765,-1,-1,-1,-1
1.71E+12,128,128,-1,-1,-1,-1,-4.15376049,-23.17273299,-27.32649348,-18.48534525,-1,-1,-1,-1
1.71E+12,128,128,-1,-1,-1,-1,-4.153931334,-23.17262162,-27.32655296,-18.48593778,-1,-1,-1,-1
1.71E+12,128,128,-1,-1,-1,-1,-4.154160786,-23.17254964,-27.32671042,-18.48653495,-1,-1,-1,-1
1.71E+12,128,128,-1,-1,-1,-1,-4.154448679,-23.17251721,-27.32696589,-18.48713648,-1,-1,-1,-1
1.71E+12,128,128,-1,-1,-1,-1,-4.154794746,-23.17252443,-27.32731918,-18.48774203,-1,-1,-1,-1
1.71E+12,128,128,-1,-1,-1,-1,-4.155198643,-23.17257134,-27.32776998,-18.4883513,-1,-1,-1,-1
1.71E+12,128,128,-1,-1,-1,-1,-4.155659938,-23.17265793,-27.32831787,-18.48896395,-1,-1,-1,-1
1.71E+12,128,128,-1,-1,-1,-1,-4.156178088,-23.1727842,-27.32896229,-18.48957966,-1,-1,-1,-1
1.71E+12,128,128,-1,-1,-1,-1,-4.156752435,-23.17295012,-27.32970256,-18.49019805,-1,-1,-1,-1
1.71E+12,128,128,-1,-1,-1,-1,-4.157382204,-23.17315556,-27.33053776,-18.49081878,-1,-1,-1,-1
1.71E+12,128,128,-1,-1,-1,-1,-4.158066516,-23.17340029,-27.3314668,-18.49144146,-1,-1,-1,-1
1.71E+12,128,128,-1,-1,-1,-1,-4.158804386,-23.17368396,-27.33248835,-18.49206574,-1,-1,-1,-1
1.71E+12,128,128,-1,-1,-1,-1,-4.159594732,-23.17400615,-27.33360088,-18.49269124,-1,-1,-1,-1
1.71E+12,128,128,-1,-1,-1,-1,-4.160436385,-23.17436633,-27.33480271,-18.49331758,-1,-1,-1,-1
1.71E+12,128,128,-1,-1,-1,-1,-4.161328099,-23.17476398,-27.33609208,-18.4939444,-1,-1,-1,-1
1.71E+12,128,128,-1,-1,-1,-1,-4.162268549,-23.17519855,-27.3374671,-18.49457133,-1,-1,-1,-1
1.71E+12,128,128,-1,-1,-1,-1,-4.163256328,-23.17566942,-27.33892575,-18.49519803,-1,-1,-1,-1
1.71E+12,128,128,-1,-1,-1,-1,-4.164289943,-23.17617596,-27.3404659,-18.49582412,-1,-1,-1,-1
1.71E+12,128,128,-1,-1,-1,-1,-4.165367787,-23.17671746,-27.34208525,-18.49644924,-1,-1,-1,-1
1.71E+12,128,128,-1,-1,-1,-1,-4.166488148,-23.17729316,-27.34378131,-18.49707301,-1,-1,-1,-1
1.71E+12,128,128,-1,-1,-1,-1,-4.167649233,-23.17790221,-27.34555144,-18.49769508,-1,-1,-1,-1
1.71E+12,128,128,-1,-1,-1,-1,-4.168849201,-23.17854369,-27.34739289,-18.49831504,-1,-1,-1,-1
1.71E+12,128,128,-1,-1,-1,-1,-4.170086186,-23.17921671,-27.34930289,-18.49893251,-1,-1,-1,-1
1.71E+12,128,128,-1,-1,-1,-1,-4.171358288,-23.17992034,-27.35127862,-18.4995471,-1,-1,-1,-1
1.71E+12,128,128,-1,-1,-1,-1,-4.17266359,-23.18065364,-27.35331723,-18.50015852,-1,-1,-1,-1
1.71E+12,128,128,-1,-1,-1,-1,-4.174000167,-23.18141564,-27.35541581,-18.50076642,-1,-1,-1,-1
1.71E+12,128,128,-1,-1,-1,-1,-4.175366073,-23.18220536,-27.35757143,-18.50137048,-1,-1,-1,-1
1.71E+12,128,128,-1,-1,-1,-1,-4.176759323,-23.18302174,-27.35978106,-18.50197037,-1,-1,-1,-1
1.71E+12,128,128,-1,-1,-1,-1,-4.178177885,-23.18386367,-27.36204156,-18.50256577,-1,-1,-1,-1
1.71E+12,128,128,-1,-1,-1,-1,-4.179619687,-23.18472999,-27.36434968,-18.50315633,-1,-1,-1,-1
1.71E+12,128,128,-1,-1,-1,-1,-4.181082601,-23.18561946,-27.36670206,-18.50374171,-1,-1,-1,-1
1.71E+12,128,128,-1,-1,-1,-1,-4.182564431,-23.18653086,-27.36909529,-18.5043216,-1,-1,-1,-1
1.71E+12,128,128,-1,-1,-1,-1,-4.184062969,-23.18746303,-27.37152599,-18.50489566,-1,-1,-1,-1
1.71E+12,128,128,-1,-1,-1,-1,-4.185576056,-23.18841478,-27.37399083,-18.50546361,-1,-1,-1,-1
1.71E+12,128,128,-1,-1,-1,-1,-4.187101605,-23.18938493,-27.37648654,-18.50602512,-1,-1,-1,-1
1.71E+12,128,128,-1,-1,-1,-1,-4.188637601,-23.19037229,-27.37900989,-18.50657986,-1,-1,-1,-1
1.71E+12,128,128,-1,-1,-1,-1,-4.190182102,-23.19137556,-27.38155766,-18.50712755,-1,-1,-1,-1
1.71E+12,128,128,-1,-1,-1,-1,-4.191733212,-23.19239345,-27.38412666,-18.50766793,-1,-1,-1,-1
1.71E+12,128,128,-1,-1,-1,-1,-4.19328905,-23.19342461,-27.38671366,-18.50820077,-1,-1,-1,-1
1.71E+12,128,128,-1,-1,-1,-1,-4.194847746,-23.19446777,-27.38931552,-18.50872581,-1,-1,-1,-1
1.71E+12,128,128,-1,-1,-1,-1,-4.196407414,-23.19552171,-27.39192912,-18.50924281,-1,-1,-1,-1
1.71E+12,128,128,-1,-1,-1,-1,-4.197966121,-23.19658527,-27.39455139,-18.50975162,-1,-1,-1,-1
1.71E+12,128,128,-1,-1,-1,-1,-4.199521927,-23.19765737,-27.39717929,-18.51025206,-1,-1,-1,-1
1.71E+12,128,128,-1,-1,-1,-1,-4.20107293,-23.19873692,-27.39980985,-18.51074399,-1,-1,-1,-1
1.71E+12,128,128,-1,-1,-1,-1,-4.202617273,-23.19982284,-27.40244011,-18.51122727,-1,-1,-1,-1
1.71E+12,128,128,-1,-1,-1,-1,-4.204153175,-23.20091399,-27.40506716,-18.51170177,-1,-1,-1,-1
1.71E+12,128,128,-1,-1,-1,-1,-4.205678976,-23.20200924,-27.40768822,-18.51216734,-1,-1,-1,-1
1.71E+12,128,128,-1,-1,-1,-1,-4.207193125,-23.20310746,-27.41030058,-18.51262378,-1,-1,-1,-1
1.71E+12,128,128,-1,-1,-1,-1,-4.208694156,-23.20420751,-27.41290167,-18.51307094,-1,-1,-1,-1
1.71E+12,128,128,-1,-1,-1,-1,-4.210180698,-23.20530833,-27.41548903,-18.51350872,-1,-1,-1,-1
1.71E+12,128,128,-1,-1,-1,-1,-4.211651465,-23.20640893,-27.41806039,-18.51393704,-1,-1,-1,-1
1.71E+12,128,128,-1,-1,-1,-1,-4.213105289,-23.20750834,-27.42061363,-18.51435579,-1,-1,-1,-1
1.71E+12,128,128,-1,-1,-1,-1,-4.214541075,-23.20860558,-27.42314665,-18.51476492,-1,-1,-1,-1
1.71E+12,128,128,-1,-1,-1,-1,-4.215957739,-23.20969966,-27.4256574,-18.51516439,-1,-1,-1,-1
1.71E+12,128,128,-1,-1,-1,-1,-4.2173542,-23.21078962,-27.42814382,-18.51555411,-1,-1,-1,-1
1.71E+12,128,128,-1,-1,-1,-1,-4.218729382,-23.21187448,-27.43060386,-18.51593403,-1,-1,-1,-1
1.71E+12,128,128,-1,-1,-1,-1,-4.220082256,-23.21295333,-27.43303559,-18.51630411,-1,-1,-1,-1
1.71E+12,128,128,-1,-1,-1,-1,-4.22141191,-23.21402536,-27.43543727,-18.51666433,-1,-1,-1,-1
1.71E+12,128,128,-1,-1,-1,-1,-4.222717561,-23.21508985,-27.43780741,-18.51701465,-1,-1,-1,-1
1.71E+12,128,128,-1,-1,-1,-1,-4.223998481,-23.21614617,-27.44014465,-18.5173551,-1,-1,-1,-1
1.71E+12,128,128,-1,-1,-1,-1,-4.225253933,-23.21719371,-27.44244765,-18.51768572,-1,-1,-1,-1
1.71E+12,128,128,-1,-1,-1,-1,-4.226483158,-23.21823186,-27.44471501,-18.51800654,-1,-1,-1,-1
1.71E+12,128,128,-1,-1,-1,-1,-4.227685384,-23.21925995,-27.44694534,-18.51831754,-1,-1,-1,-1
1.71E+12,128,128,-1,-1,-1,-1,-4.228859844,-23.22027734,-27.44913719,-18.51861869,-1,-1,-1,-1
1.71E+12,128,128,-1,-1,-1,-1,-4.230005826,-23.22128337,-27.45128919,-18.51890999,-1,-1,-1,-1
1.71E+12,128,128,-1,-1,-1,-1,-4.231122699,-23.22227744,-27.45340014,-18.51919145,-1,-1,-1,-1
1.71E+12,128,128,-1,-1,-1,-1,-4.232209955,-23.22325903,-27.45546899,-18.51946312,-1,-1,-1,-1
1.71E+12,128,128,-1,-1,-1,-1,-4.233267263,-23.22422767,-27.45749493,-18.51972506,-1,-1,-1,-1
1.71E+12,128,128,-1,-1,-1,-1,-4.234294443,-23.22518289,-27.45947733,-18.51997734,-1,-1,-1,-1
1.71E+12,128,128,-1,-1,-1,-1,-4.235291417,-23.22612424,-27.46141566,-18.52022008,-1,-1,-1,-1
1.71E+12,128,128,-1,-1,-1,-1,-4.236258157,-23.22705127,-27.46330943,-18.5204534,-1,-1,-1,-1
1.71E+12,128,128,-1,-1,-1,-1,-4.237194682,-23.22796349,-27.46515817,-18.52067741,-1,-1,-1,-1
1.71E+12,128,128,-1,-1,-1,-1,-4.23810108,-23.22886037,-27.46696145,-18.52089226,-1,-1,-1,-1
1.71E+12,128,128,-1,-1,-1,-1,-4.238977504,-23.2297414,-27.4687189,-18.52109807,-1,-1,-1,-1
1.71E+12,128,128,-1,-1,-1,-1,-4.239824145,-23.23060615,-27.47043029,-18.52129495,-1,-1,-1,-1
1.71E+12,128,128,-1,-1,-1,-1,-4.240641177,-23.23145424,-27.47209542,-18.52148302,-1,-1,-1,-1
1.71E+12,128,128,-1,-1,-1,-1,-4.24142876,-23.23228534,-27.4737141,-18.52166244,-1,-1,-1,-1
1.71E+12,128,128,-1,-1,-1,-1,-4.242187036,-23.2330991,-27.47528613,-18.52183338,-1,-1,-1,-1
1.71E+12,128,128,-1,-1,-1,-1,-4.242916119,-23.23389517,-27.47681129,-18.52199598,-1,-1,-1,-1
1.71E+12,128,128,-1,-1,-1,-1,-4.243616151,-23.23467322,-27.47828938,-18.52215041,-1,-1,-1,-1
1.71E+12,128,128,-1,-1,-1,-1,-4.244287338,-23.23543288,-27.47972021,-18.52229683,-1,-1,-1,-1
1.71E+12,128,128,-1,-1,-1,-1,-4.244929981,-23.23617367,-27.48110365,-18.52243545,-1,-1,-1,-1
1.71E+12,128,128,-1,-1,-1,-1,-4.245544483,-23.23689519,-27.48243967,-18.52256643,-1,-1,-1,-1
1.71E+12,128,128,-1,-1,-1,-1,-4.246131328,-23.2375971,-27.48372843,-18.52268993,-1,-1,-1,-1
1.71E+12,128,128,-1,-1,-1,-1,-4.24669108,-23.23827918,-27.48497026,-18.52280613,-1,-1,-1,-1
1.71E+12,128,128,-1,-1,-1,-1,-4.24722434,-23.2389412,-27.48616554,-18.52291523,-1,-1,-1,-1
1.71E+12,128,128,-1,-1,-1,-1,-4.24773165,-23.23958302,-27.48731467,-18.52301744,-1,-1,-1,-1
1.71E+12,128,128,-1,-1,-1,-1,-4.248213404,-23.24020445,-27.48841786,-18.523113,-1,-1,-1,-1
1.71E+12,128,128,-1,-1,-1,-1,-4.248669841,-23.24080533,-27.48947517,-18.52320212,-1,-1,-1,-1
1.71E+12,128,128,-1,-1,-1,-1,-4.24910109,-23.24138547,-27.49048656,-18.52328495,-1,-1,-1,-1
1.71E+12,128,128,-1,-1,-1,-1,-4.24950728,-23.24194471,-27.49145198,-18.52336172,-1,-1,-1,-1
1.71E+12,128,128,-1,-1,-1,-1,-4.249888664,-23.24248294,-27.4923716,-18.52343266,-1,-1,-1,-1
1.71E+12,128,128,-1,-1,-1,-1,-4.250245686,-23.24300008,-27.49324577,-18.523498,-1,-1,-1,-1
1.71E+12,128,128,-1,-1,-1,-1,-4.250578969,-23.24349608,-27.49407505,-18.52355798,-1,-1,-1,-1
1.71E+12,128,128,-1,-1,-1,-1,-4.250889234,-23.24397086,-27.49486009,-18.52361284,-1,-1,-1,-1
1.71E+12,128,128,-1,-1,-1,-1,-4.251177212,-23.24442428,-27.49560149,-18.52366277,-1,-1,-1,-1
1.71E+12,128,128,-1,-1,-1,-1,-4.25144361,-23.24485617,-27.49629978,-18.52370796,-1,-1,-1,-1
1.71E+12,128,128,-1,-1,-1,-1,-4.251689063,-23.24526633,-27.49695539,-18.5237486,-1,-1,-1,-1
1.71E+12,128,128,-1,-1,-1,-1,-4.251914135,-23.24565464,-27.49756878,-18.52378487,-1,-1,-1,-1
1.71E+12,128,128,-1,-1,-1,-1,-4.252119338,-23.24602104,-27.49814038,-18.52381694,-1,-1,-1,-1
1.71E+12,128,128,-1,-1,-1,-1,-4.252305143,-23.24636558,-27.49867072,-18.52384504,-1,-1,-1,-1
1.71E+12,128,128,-1,-1,-1,-1,-4.252472007,-23.24668838,-27.49916039,-18.52386943,-1,-1,-1,-1
1.71E+12,128,128,-1,-1,-1,-1,-4.252620435,-23.24698958,-27.49961002,-18.52389038,-1,-1,-1,-1
1.71E+12,128,128,-1,-1,-1,-1,-4.252750958,-23.24726932,-27.50002028,-18.52390816,-1,-1,-1,-1
1.71E+12,128,128,-1,-1,-1,-1,-4.252864079,-23.24752769,-27.50039177,-18.52392297,-1,-1,-1,-1
1.71E+12,128,128,-1,-1,-1,-1,-4.252960249,-23.24776476,-27.50072501,-18.52393501,-1,-1,-1,-1
1.71E+12,128,128,-1,-1,-1,-1,-4.253039833,-23.24798061,-27.50102044,-18.52394444,-1,-1,-1,-1
1.71E+12,128,128,-1,-1,-1,-1,-4.253103138,-23.24817532,-27.50127845,-18.52395145,-1,-1,-1,-1
1.71E+12,128,128,-1,-1,-1,-1,-4.25315047,-23.24834902,-27.50149949,-18.52395628,-1,-1,-1,-1
1.71E+12,128,128,-1,-1,-1,-1,-4.253182152,-23.24850193,-27.50168408,-18.52395915,-1,-1,-1,-1
1.71E+12,128,128,-1,-1,-1,-1,-4.253198547,-23.24863433,-27.50183287,-18.52396026,-1,-1,-1,-1
1.71E+12,128,128,-1,-1,-1,-1,-4.25320007,-23.24874646,-27.50194653,-18.52395979,-1,-1,-1,-1
1.71E+12,128,128,-1,-1,-1,-1,-4.253187189,-23.24883854,-27.50202573,-18.52395794,-1,-1,-1,-1
1.71E+12,128,128,-1,-1,-1,-1,-4.253160393,-23.24891075,-27.50207114,-18.52395488,-1,-1,-1,-1
1.71E+12,128,128,-1,-1,-1,-1,-4.253120123,-23.24896327,-27.50208339,-18.52395081,-1,-1,-1,-1
1.71E+12,128,128,-1,-1,-1,-1,-4.253066807,-23.24899633,-27.50206314,-18.52394591,-1,-1,-1,-1
1.71E+12,128,128,-1,-1,-1,-1,-4.253000946,-23.24901022,-27.50201117,-18.52394037,-1,-1,-1,-1
1.71E+12,128,128,-1,-1,-1,-1,-4.252923108,-23.24900531,-27.50192842,-18.52393439,-1,-1,-1,-1
1.71E+12,128,128,-1,-1,-1,-1,-4.252833876,-23.24898205,-27.50181593,-18.52392821,-1,-1,-1,-1
1.71E+12,128,128,-1,-1,-1,-1,-4.252733796,-23.2489409,-27.5016747,-18.52392204,-1,-1,-1,-1
1.71E+12,128,128,-1,-1,-1,-1,-4.252623316,-23.24888233,-27.50150565,-18.52391608,-1,-1,-1,-1
1.71E+12,128,128,-1,-1,-1,-1,-4.252502795,-23.2488068,-27.50130959,-18.52391052,-1,-1,-1,-1
1.71E+12,128,128,-1,-1,-1,-1,-4.25237258,-23.24871474,-27.50108732,-18.5239056,-1,-1,-1,-1
1.71E+12,128,128,-1,-1,-1,-1,-4.252233056,-23.24860659,-27.50083964,-18.52390155,-1,-1,-1,-1
1.71E+12,128,128,-1,-1,-1,-1,-4.252084652,-23.24848278,-27.50056744,-18.52389856,-1,-1,-1,-1
1.71E+12,128,128,-1,-1,-1,-1,-4.251927871,-23.24834379,-27.50027166,-18.52389685,-1,-1,-1,-1
1.71E+12,128,128,-1,-1,-1,-1,-4.251763273,-23.24819014,-27.49995341,-18.52389662,-1,-1,-1,-1
1.71E+12,128,128,-1,-1,-1,-1,-4.251591451,-23.24802248,-27.49961394,-18.5238981,-1,-1,-1,-1
1.71E+12,128,128,-1,-1,-1,-1,-4.251413016,-23.24784146,-27.49925447,-18.52390155,-1,-1,-1,-1
1.71E+12,128,128,-1,-1,-1,-1,-4.251228609,-23.24764769,-27.4988763,-18.5239072,-1,-1,-1,-1
1.71E+12,128,128,-1,-1,-1,-1,-4.251038858,-23.24744181,-27.49848067,-18.52391528,-1,-1,-1,-1
1.71E+12,128,128,-1,-1,-1,-1,-4.250844359,-23.24722442,-27.49806878,-18.52392601,-1,-1,-1,-1
1.71E+12,128,128,-1,-1,-1,-1,-4.250645725,-23.24699616,-27.49764189,-18.5239396,-1,-1,-1,-1
1.71E+12,128,128,-1,-1,-1,-1,-4.250443608,-23.24675769,-27.49720129,-18.52395627,-1,-1,-1,-1
1.71E+12,128,128,-1,-1,-1,-1,-4.250238699,-23.24650976,-27.49674845,-18.52397624,-1,-1,-1,-1
1.71E+12,128,128,-1,-1,-1,-1,-4.250031723,-23.24625319,-27.49628491,-18.52399976,-1,-1,-1,-1
1.71E+12,128,128,-1,-1,-1,-1,-4.249823422,-23.24598884,-27.49581226,-18.5240271,-1,-1,-1,-1
1.71E+12,128,128,-1,-1,-1,-1,-4.249614506,-23.2457176,-27.4953321,-18.52405846,-1,-1,-1,-1
1.71E+12,128,128,-1,-1,-1,-1,-4.249405614,-23.24544034,-27.49484595,-18.52409406,-1,-1,-1,-1
1.71E+12,128,128,-1,-1,-1,-1,-4.249197311,-23.24515791,-27.49435522,-18.52413407,-1,-1,-1,-1
1.71E+12,128,128,-1,-1,-1,-1,-4.248990084,-23.24487115,-27.49386123,-18.52417863,-1,-1,-1,-1
1.71E+12,128,128,-1,-1,-1,-1,-4.248784373,-23.2445809,-27.49336527,-18.52422787,-1,-1,-1,-1
1.71E+12,128,128,-1,-1,-1,-1,-4.248580647,-23.24428806,-27.49286871,-18.52428191,-1,-1,-1,-1
1.71E+12,128,128,-1,-1,-1,-1,-4.248379431,-23.24399359,-27.49237302,-18.52434089,-1,-1,-1,-1
1.71E+12,128,128,-1,-1,-1,-1,-4.248181272,-23.24369846,-27.49187973,-18.52440497,-1,-1,-1,-1
1.71E+12,128,128,-1,-1,-1,-1,-4.247986737,-23.24340366,-27.4913904,-18.52447427,-1,-1,-1,-1
1.71E+12,128,128,-1,-1,-1,-1,-4.247796414,-23.24311015,-27.49090657,-18.52454892,-1,-1,-1,-1
1.71E+12,128,128,-1,-1,-1,-1,-4.247610925,-23.24281869,-27.49042961,-18.52462898,-1,-1,-1,-1
1.71E+12,128,128,-1,-1,-1,-1,-4.247430917,-23.24252985,-27.48996076,-18.52471452,-1,-1,-1,-1
1.71E+12,128,128,-1,-1,-1,-1,-4.247256993,-23.24224414,-27.48950113,-18.52480559,-1,-1,-1,-1
1.71E+12,128,128,-1,-1,-1,-1,-4.247089677,-23.24196203,-27.4890517,-18.52490222,-1,-1,-1,-1
1.71E+12,128,128,-1,-1,-1,-1,-4.246929411,-23.24168396,-27.48861337,-18.52500444,-1,-1,-1,-1
1.71E+12,128,128,-1,-1,-1,-1,-4.246776556,-23.24141031,-27.48818686,-18.52511236,-1,-1,-1,-1
1.71E+12,128,128,-1,-1,-1,-1,-4.246631381,-23.24114129,-27.48777267,-18.52522612,-1,-1,-1,-1
1.71E+12,128,128,-1,-1,-1,-1,-4.246494061,-23.24087697,-27.48737103,-18.52534589,-1,-1,-1,-1
1.71E+12,128,128,-1,-1,-1,-1,-4.246364753,-23.24061706,-27.48698181,-18.52547184,-1,-1,-1,-1
1.71E+12,128,128,-1,-1,-1,-1,-4.246243661,-23.24036078,-27.48660444,-18.52560416,-1,-1,-1,-1
1.71E+12,128,128,-1,-1,-1,-1,-4.246131035,-23.24010695,-27.48623799,-18.52574307,-1,-1,-1,-1
1.71E+12,128,128,-1,-1,-1,-1,-4.246027201,-23.23985427,-27.48588147,-18.52588883,-1,-1,-1,-1
1.71E+12,128,128,-1,-1,-1,-1,-4.245932598,-23.23960162,-27.48553422,-18.5260417,-1,-1,-1,-1
1.71E+12,128,128,-1,-1,-1,-1,-4.245847828,-23.23934841,-27.48519624,-18.52620198,-1,-1,-1,-1
1.71E+12,128,128,-1,-1,-1,-1,-4.245773795,-23.23909432,-27.48486811,-18.52636998,-1,-1,-1,-1
1.71E+12,128,128,-1,-1,-1,-1,-4.245711725,-23.23883901,-27.48455073,-18.52654607,-1,-1,-1,-1
1.71E+12,128,128,-1,-1,-1,-1,-4.245662926,-23.23858217,-27.4842451,-18.52673065,-1,-1,-1,-1
1.71E+12,128,128,-1,-1,-1,-1,-4.245628644,-23.2383235,-27.48395214,-18.52692415,-1,-1,-1,-1
1.71E+12,128,128,-1,-1,-1,-1,-4.245609956,-23.23806268,-27.48367263,-18.52712705,-1,-1,-1,-1
1.71E+12,128,128,-1,-1,-1,-1,-4.245607701,-23.2377995,-27.4834072,-18.52733989,-1,-1,-1,-1
1.71E+12,128,128,-1,-1,-1,-1,-4.245622566,-23.23753387,-27.48315644,-18.52756318,-1,-1,-1,-1
1.71E+12,128,128,-1,-1,-1,-1,-4.24565517,-23.23726581,-27.48292098,-18.52779734,-1,-1,-1,-1
1.71E+12,128,128,-1,-1,-1,-1,-4.245706084,-23.23699543,-27.48270152,-18.52804282,-1,-1,-1,-1
1.71E+12,128,128,-1,-1,-1,-1,-4.245775872,-23.23672291,-27.48249878,-18.52830006,-1,-1,-1,-1
1.71E+12,128,128,-1,-1,-1,-1,-4.245865096,-23.23644825,-27.48231335,-18.52856947,-1,-1,-1,-1
1.71E+12,128,128,-1,-1,-1,-1,-4.245974277,-23.2361712,-27.48214548,-18.52885146,-1,-1,-1,-1
1.71E+12,128,128,-1,-1,-1,-1,-4.246103858,-23.23589125,-27.48199511,-18.52914637,-1,-1,-1,-1
1.71E+12,128,128,-1,-1,-1,-1,-4.246254172,-23.23560775,-27.48186192,-18.52945451,-1,-1,-1,-1
1.71E+12,128,128,-1,-1,-1,-1,-4.246425427,-23.23531995,-27.48174538,-18.52977621,-1,-1,-1,-1
1.71E+12,128,128,-1,-1,-1,-1,-4.246617754,-23.23502708,-27.48164483,-18.53011177,-1,-1,-1,-1
1.71E+12,128,128,-1,-1,-1,-1,-4.246831261,-23.23472833,-27.4815596,-18.53046146,-1,-1,-1,-1
1.71E+12,128,128,-1,-1,-1,-1,-4.247066034,-23.2344229,-27.48148893,-18.53082556,-1,-1,-1,-1
1.71E+12,128,128,-1,-1,-1,-1,-4.247322145,-23.23410988,-27.48143203,-18.53120433,-1,-1,-1,-1
1.71E+12,128,128,-1,-1,-1,-1,-4.247599645,-23.23378835,-27.48138799,-18.53159799,-1,-1,-1,-1
1.71E+12,128,128,-1,-1,-1,-1,-4.247898533,-23.23345727,-27.4813558,-18.53200676,-1,-1,-1,-1
1.71E+12,128,128,-1,-1,-1,-1,-4.248218762,-23.23311555,-27.48133431,-18.53243081,-1,-1,-1,-1
1.71E+12,128,128,-1,-1,-1,-1,-4.248560248,-23.23276204,-27.48132229,-18.53287032,-1,-1,-1,-1
1.71E+12,128,128,-1,-1,-1,-1,-4.248922894,-23.23239559,-27.48131848,-18.53332549,-1,-1,-1,-1
1.71E+12,128,128,-1,-1,-1,-1,-4.249306554,-23.23201511,-27.48132166,-18.53379649,-1,-1,-1,-1
1.71E+12,128,128,-1,-1,-1,-1,-4.249711038,-23.23161966,-27.48133069,-18.5342835,-1,-1,-1,-1
1.71E+12,128,128,-1,-1,-1,-1,-4.250136141,-23.23120838,-27.48134452,-18.5347867,-1,-1,-1,-1
1.71E+12,128,128,-1,-1,-1,-1,-4.250581588,-23.23078044,-27.48136202,-18.5353063,-1,-1,-1,-1
1.71E+12,128,128,-1,-1,-1,-1,-4.251047021,-23.23033499,-27.48138201,-18.53584256,-1,-1,-1,-1
1.71E+12,128,128,-1,-1,-1,-1,-4.251532078,-23.22987118,-27.48140326,-18.53639566,-1,-1,-1,-1
1.71E+12,128,128,-1,-1,-1,-1,-4.252036432,-23.22938819,-27.48142462,-18.53696571,-1,-1,-1,-1
1.71E+12,128,128,-1,-1,-1,-1,-4.252559728,-23.22888519,-27.48144492,-18.53755287,-1,-1,-1,-1
1.71E+12,128,128,-1,-1,-1,-1,-4.25310159,-23.22836143,-27.48146302,-18.53815724,-1,-1,-1,-1
1.71E+12,128,128,-1,-1,-1,-1,-4.253661638,-23.22781625,-27.48147788,-18.53877891,-1,-1,-1,-1
1.71E+12,128,128,-1,-1,-1,-1,-4.254239467,-23.22724911,-27.48148858,-18.53941795,-1,-1,-1,-1
1.71E+12,128,128,-1,-1,-1,-1,-4.254834644,-23.22665956,-27.48149421,-18.54007443,-1,-1,-1,-1
1.71E+12,128,128,-1,-1,-1,-1,-4.255446721,-23.22604719,-27.48149391,-18.54074836,-1,-1,-1,-1
1.71E+12,128,128,-1,-1,-1,-1,-4.256075239,-23.22541157,-27.48148681,-18.54143974,-1,-1,-1,-1
1.71E+12,128,128,-1,-1,-1,-1,-4.256719658,-23.2247523,-27.48147196,-18.54214855,-1,-1,-1,-1
1.71E+12,128,128,-1,-1,-1,-1,-4.257379346,-23.22406903,-27.48144838,-18.54287477,-1,-1,-1,-1
1.71E+12,128,128,-1,-1,-1,-1,-4.258053662,-23.22336153,-27.48141519,-18.54361833,-1,-1,-1,-1
1.71E+12,128,128,-1,-1,-1,-1,-4.258742025,-23.22262972,-27.48137174,-18.54437908,-1,-1,-1,-1
1.71E+12,128,128,-1,-1,-1,-1,-4.259443885,-23.22187366,-27.48131754,-18.54515686,-1,-1,-1,-1
1.71E+12,128,128,-1,-1,-1,-1,-4.260158686,-23.22109352,-27.48125221,-18.54595152,-1,-1,-1,-1
1.71E+12,128,128,-1,-1,-1,-1,-4.260885792,-23.22028956,-27.48117535,-18.54676288,-1,-1,-1,-1
1.71E+12,128,128,-1,-1,-1,-1,-4.26162448,-23.21946208,-27.48108656,-18.54759073,-1,-1,-1,-1
1.71E+12,128,128,-1,-1,-1,-1,-4.262373976,-23.21861143,-27.4809854,-18.54843483,-1,-1,-1,-1
1.71E+12,128,128,-1,-1,-1,-1,-4.263133461,-23.21773797,-27.48087143,-18.54929487,-1,-1,-1,-1
1.71E+12,128,128,-1,-1,-1,-1,-4.263902064,-23.21684221,-27.48074427,-18.55017051,-1,-1,-1,-1
1.71E+12,128,128,-1,-1,-1,-1,-4.264678875,-23.21592479,-27.48060366,-18.55106137,-1,-1,-1,-1
1.71E+12,128,128,-1,-1,-1,-1,-4.265462976,-23.21498655,-27.48044953,-18.55196706,-1,-1,-1,-1
1.71E+12,128,128,-1,-1,-1,-1,-4.266253438,-23.2140285,-27.48028194,-18.55288713,-1,-1,-1,-1
1.71E+12,128,128,-1,-1,-1,-1,-4.267049319,-23.21305171,-27.48010103,-18.5538211,-1,-1,-1,-1
1.71E+12,128,128,-1,-1,-1,-1,-4.267849656,-23.21205733,-27.47990698,-18.55476842,-1,-1,-1,-1
1.71E+12,128,128,-1,-1,-1,-1,-4.268653467,-23.21104647,-27.47969994,-18.55572852,-1,-1,-1,-1
1.71E+12,128,128,-1,-1,-1,-1,-4.269459749,-23.21002029,-27.47948003,-18.55670076,-1,-1,-1,-1
1.71E+12,128,128,-1,-1,-1,-1,-4.270267491,-23.20897995,-27.47924744,-18.55768448,-1,-1,-1,-1
1.71E+12,128,128,-1,-1,-1,-1,-4.271075695,-23.20792673,-27.47900242,-18.55867897,-1,-1,-1,-1
1.71E+12,128,128,-1,-1,-1,-1,-4.271883375,-23.20686203,-27.4787454,-18.55968348,-1,-1,-1,-1
1.71E+12,128,128,-1,-1,-1,-1,-4.272689513,-23.20578736,-27.47847687,-18.56069725,-1,-1,-1,-1
1.71E+12,128,128,-1,-1,-1,-1,-4.273492973,-23.20470431,-27.47819728,-18.56171949,-1,-1,-1,-1
1.71E+12,128,128,-1,-1,-1,-1,-4.27429248,-23.20361451,-27.47790699,-18.56274939,-1,-1,-1,-1
1.71E+12,128,128,-1,-1,-1,-1,-4.275086683,-23.20251963,-27.47760631,-18.56378604,-1,-1,-1,-1
1.71E+12,128,128,-1,-1,-1,-1,-4.275874207,-23.20142133,-27.47729554,-18.5648285,-1,-1,-1,-1
1.71E+12,128,128,-1,-1,-1,-1,-4.276653669,-23.20032129,-27.47697496,-18.5658758,-1,-1,-1,-1
1.71E+12,128,128,-1,-1,-1,-1,-4.277423734,-23.1992212,-27.47664494,-18.56692696,-1,-1,-1,-1
1.71E+12,128,128,-1,-1,-1,-1,-4.278183138,-23.19812282,-27.47630596,-18.56798094,-1,-1,-1,-1
1.71E+12,128,128,-1,-1,-1,-1,-4.278930711,-23.19702795,-27.47595867,-18.56903672,-1,-1,-1,-1
1.71E+12,128,128,-1,-1,-1,-1,-4.279665404,-23.19593848,-27.47560388,-18.57009325,-1,-1,-1,-1
1.71E+12,128,128,-1,-1,-1,-1,-4.280386285,-23.19485632,-27.4752426,-18.57114946,-1,-1,-1,-1
1.71E+12,128,128,-1,-1,-1,-1,-4.281092535,-23.19378335,-27.47487589,-18.57220433,-1,-1,-1,-1
1.71E+12,128,128,-1,-1,-1,-1,-4.281783332,-23.19272138,-27.47450471,-18.57325678,-1,-1,-1,-1
1.71E+12,128,128,-1,-1,-1,-1,-4.282457721,-23.19167214,-27.47412986,-18.57430569,-1,-1,-1,-1
1.71E+12,128,128,-1,-1,-1,-1,-4.283114609,-23.19063738,-27.47375198,-18.57534996,-1,-1,-1,-1
1.71E+12,128,128,-1,-1,-1,-1,-4.283752791,-23.18961885,-27.47337164,-18.57638852,-1,-1,-1,-1
1.71E+12,128,128,-1,-1,-1,-1,-4.284370975,-23.18861839,-27.47298936,-18.57742027,-1,-1,-1,-1
1.71E+12,128,128,-1,-1,-1,-1,-4.284967864,-23.18763783,-27.47260569,-18.57844407,-1,-1,-1,-1
1.71E+12,128,128,-1,-1,-1,-1,-4.285542213,-23.18667897,-27.47222118,-18.57945881,-1,-1,-1,-1
1.71E+12,128,128,-1,-1,-1,-1,-4.286092824,-23.18574348,-27.47183631,-18.58046337,-1,-1,-1,-1
1.71E+12,128,128,-1,-1,-1,-1,-4.286618525,-23.18483295,-27.47145148,-18.58145664,-1,-1,-1,-1
1.71E+12,128,128,-1,-1,-1,-1,-4.287118191,-23.18394878,-27.47106697,-18.58243749,-1,-1,-1,-1
1.71E+12,128,128,-1,-1,-1,-1,-4.287590742,-23.18309225,-27.47068299,-18.58340471,-1,-1,-1,-1
1.71E+12,128,128,-1,-1,-1,-1,-4.288035124,-23.18226457,-27.47029969,-18.58435716,-1,-1,-1,-1
1.71E+12,128,128,-1,-1,-1,-1,-4.288450323,-23.18146693,-27.46991725,-18.58529374,-1,-1,-1,-1
1.71E+12,128,128,-1,-1,-1,-1,-4.288835356,-23.18070042,-27.46953578,-18.5862134,-1,-1,-1,-1
1.71E+12,128,128,-1,-1,-1,-1,-4.289189224,-23.1799661,-27.46915532,-18.58711512,-1,-1,-1,-1
1.71E+12,128,128,-1,-1,-1,-1,-4.289510881,-23.17926497,-27.46877585,-18.58799792,-1,-1,-1,-1
1.71E+12,128,128,-1,-1,-1,-1,-4.289799261,-23.17859796,-27.46839722,-18.58886085,-1,-1,-1,-1
1.71E+12,128,128,-1,-1,-1,-1,-4.290053317,-23.17796587,-27.46801919,-18.58970292,-1,-1,-1,-1
1.71E+12,128,128,-1,-1,-1,-1,-4.290272033,-23.17736933,-27.46764136,-18.5905232,-1,-1,-1,-1
1.71E+12,128,128,-1,-1,-1,-1,-4.290454443,-23.17680881,-27.46726325,-18.59132084,-1,-1,-1,-1
1.71E+12,128,128,-1,-1,-1,-1,-4.290599654,-23.17628469,-27.46688435,-18.59209498,-1,-1,-1,-1
1.71E+12,128,128,-1,-1,-1,-1,-4.29070686,-23.17579731,-27.46650417,-18.59284483,-1,-1,-1,-1
1.71E+12,128,128,-1,-1,-1,-1,-4.290775362,-23.1753469,-27.46612226,-18.59356963,-1,-1,-1,-1
1.71E+12,128,128,-1,-1,-1,-1,-4.290804568,-23.17493363,-27.4657382,-18.59426868,-1,-1,-1,-1
1.71E+12,128,128,-1,-1,-1,-1,-4.290793946,-23.17455755,-27.4653515,-18.59494134,-1,-1,-1,-1
1.71E+12,128,128,-1,-1,-1,-1,-4.290742972,-23.17421856,-27.46496153,-18.59558702,-1,-1,-1,-1
1.71E+12,128,128,-1,-1,-1,-1,-4.290651121,-23.17391637,-27.46456749,-18.59620519,-1,-1,-1,-1
1.71E+12,128,128,-1,-1,-1,-1,-4.290517861,-23.17365052,-27.46416838,-18.59679535,-1,-1,-1,-1
1.71E+12,128,128,-1,-1,-1,-1,-4.290342682,-23.17342038,-27.46376306,-18.59735707,-1,-1,-1,-1
1.71E+12,128,128,-1,-1,-1,-1,-4.290125175,-23.1732252,-27.46335038,-18.59788997,-1,-1,-1,-1
1.71E+12,128,128,-1,-1,-1,-1,-4.289865062,-23.17306419,-27.46292925,-18.59839373,-1,-1,-1,-1
1.71E+12,128,128,-1,-1,-1,-1,-4.289562175,-23.17293646,-27.46249864,-18.5988681,-1,-1,-1,-1
1.71E+12,128,128,-1,-1,-1,-1,-4.289216415,-23.17284105,-27.46205747,-18.59931297,-1,-1,-1,-1
1.71E+12,128,128,-1,-1,-1,-1,-4.288827715,-23.17277688,-27.46160459,-18.59972823,-1,-1,-1,-1
1.71E+12,128,128,-1,-1,-1,-1,-4.288395997,-23.17274274,-27.46113873,-18.60011382,-1,-1,-1,-1
1.71E+12,128,128,-1,-1,-1,-1,-4.287921141,-23.17273733,-27.46065847,-18.60046967,-1,-1,-1,-1
1.71E+12,128,128,-1,-1,-1,-1,-4.287402979,-23.17275923,-27.46016221,-18.60079583,-1,-1,-1,-1
1.71E+12,128,128,-1,-1,-1,-1,-4.286841294,-23.17280697,-27.45964826,-18.60109238,-1,-1,-1,-1
1.71E+12,128,128,-1,-1,-1,-1,-4.28623581,-23.17287896,-27.45911477,-18.60135946,-1,-1,-1,-1
1.71E+12,128,128,-1,-1,-1,-1,-4.28558623,-23.17297368,-27.45855991,-18.60159724,-1,-1,-1,-1
1.71E+12,128,128,-1,-1,-1,-1,-4.284892308,-23.17308959,-27.4579819,-18.60180595,-1,-1,-1,-1
1.71E+12,128,128,-1,-1,-1,-1,-4.284153889,-23.17322508,-27.45737896,-18.60198589,-1,-1,-1,-1
1.71E+12,128,128,-1,-1,-1,-1,-4.283370952,-23.17337839,-27.45674934,-18.60213747,-1,-1,-1,-1
1.71E+12,128,128,-1,-1,-1,-1,-4.282543598,-23.17354768,-27.45609128,-18.60226111,-1,-1,-1,-1
1.71E+12,128,128,-1,-1,-1,-1,-4.281671951,-23.173731,-27.45540295,-18.60235728,-1,-1,-1,-1
1.71E+12,128,128,-1,-1,-1,-1,-4.280756156,-23.17392631,-27.45468247,-18.60242652,-1,-1,-1,-1
1.71E+12,128,128,-1,-1,-1,-1,-4.279796404,-23.1741316,-27.453928,-18.60246937,-1,-1,-1,-1
1.71E+12,128,128,-1,-1,-1,-1,-4.278792917,-23.17434483,-27.45313775,-18.60248649,-1,-1,-1,-1
1.71E+12,128,128,-1,-1,-1,-1,-4.277746003,-23.17456399,-27.45230999,-18.60247856,-1,-1,-1,-1
1.71E+12,128,128,-1,-1,-1,-1,-4.276656033,-23.17478708,-27.45144311,-18.60244631,-1,-1,-1,-1
1.71E+12,128,128,-1,-1,-1,-1,-4.275523405,-23.17501207,-27.45053548,-18.60239049,-1,-1,-1,-1
1.71E+12,128,128,-1,-1,-1,-1,-4.274348546,-23.17523687,-27.44958542,-18.60231187,-1,-1,-1,-1
1.71E+12,128,128,-1,-1,-1,-1,-4.273131894,-23.17545929,-27.44859118,-18.60221129,-1,-1,-1,-1
1.71E+12,128,128,-1,-1,-1,-1,-4.27187391,-23.17567705,-27.44755096,-18.60208962,-1,-1,-1,-1
1.71E+12,128,128,-1,-1,-1,-1,-4.270575129,-23.17588786,-27.44646299,-18.60194772,-1,-1,-1,-1
1.71E+12,128,128,-1,-1,-1,-1,-4.269236255,-23.17608945,-27.4453257,-18.60178649,-1,-1,-1,-1
1.71E+12,128,128,-1,-1,-1,-1,-4.267858174,-23.17627956,-27.44413774,-18.60160686,-1,-1,-1,-1
1.71E+12,128,128,-1,-1,-1,-1,-4.266441869,-23.1764561,-27.44289797,-18.60140981,-1,-1,-1,-1
1.71E+12,128,128,-1,-1,-1,-1,-4.264988342,-23.17661704,-27.44160538,-18.60119636,-1,-1,-1,-1
1.71E+12,128,128,-1,-1,-1,-1,-4.263498559,-23.17676041,-27.44025897,-18.60096752,-1,-1,-1,-1
1.71E+12,128,128,-1,-1,-1,-1,-4.261973388,-23.17688426,-27.43885765,-18.60072425,-1,-1,-1,-1
1.71E+12,128,128,-1,-1,-1,-1,-4.26041358,-23.17698671,-27.43740029,-18.60046754,-1,-1,-1,-1
1.71E+12,128,128,-1,-1,-1,-1,-4.258819834,-23.1770659,-27.43588574,-18.60019843,-1,-1,-1,-1
1.71E+12,128,128,-1,-1,-1,-1,-4.25719289,-23.17712016,-27.43431305,-18.59991798,-1,-1,-1,-1
1.71E+12,128,128,-1,-1,-1,-1,-4.255533577,-23.17714795,-27.43268153,-18.59962727,-1,-1,-1,-1
1.71E+12,128,128,-1,-1,-1,-1,-4.253842833,-23.17714786,-27.43099069,-18.59932738,-1,-1,-1,-1
1.71E+12,128,128,-1,-1,-1,-1,-4.252121675,-23.17711855,-27.42924022,-18.59901938,-1,-1,-1,-1
1.71E+12,128,128,-1,-1,-1,-1,-4.250371145,-23.17705877,-27.42742991,-18.59870431,-1,-1,-1,-1
1.71E+12,128,128,-1,-1,-1,-1,-4.248592288,-23.17696728,-27.42555957,-18.59838321,-1,-1,-1,-1
1.71E+12,128,128,-1,-1,-1,-1,-4.246786188,-23.17684289,-27.42362908,-18.59805704,-1,-1,-1,-1
1.71E+12,128,128,-1,-1,-1,-1,-4.244953952,-23.17668446,-27.42163841,-18.59772677,-1,-1,-1,-1
1.71E+12,128,128,-1,-1,-1,-1,-4.243096729,-23.17649097,-27.4195877,-18.59739337,-1,-1,-1,-1
1.71E+12,128,128,-1,-1,-1,-1,-4.241215708,-23.17626155,-27.41747726,-18.59705777,-1,-1,-1,-1
1.71E+12,128,128,-1,-1,-1,-1,-4.239312102,-23.17599549,-27.41530759,-18.59672093,-1,-1,-1,-1
1.71E+12,128,128,-1,-1,-1,-1,-4.237387155,-23.17569226,-27.41307941,-18.59638384,-1,-1,-1,-1
1.71E+12,128,128,-1,-1,-1,-1,-4.235442163,-23.17535143,-27.41079359,-18.59604741,-1,-1,-1,-1
1.71E+12,128,128,-1,-1,-1,-1,-4.233478463,-23.17497269,-27.40845116,-18.5957125,-1,-1,-1,-1
1.71E+12,128,128,-1,-1,-1,-1,-4.23149744,-23.1745558,-27.40605324,-18.59537996,-1,-1,-1,-1
1.71E+12,128,128,-1,-1,-1,-1,-4.229500529,-23.17410054,-27.40360107,-18.59505063,-1,-1,-1,-1
1.71E+12,128,128,-1,-1,-1,-1,-4.227489179,-23.17360681,-27.40109598,-18.59472532,-1,-1,-1,-1
1.71E+12,128,128,-1,-1,-1,-1,-4.225464834,-23.17307463,-27.39853947,-18.59440477,-1,-1,-1,-1
1.71E+12,128,128,-1,-1,-1,-1,-4.223428951,-23.17250423,-27.39593318,-18.59408973,-1,-1,-1,-1
1.71E+12,128,128,-1,-1,-1,-1,-4.22138302,-23.17189601,-27.39327903,-18.59378091,-1,-1,-1,-1
1.71E+12,128,128,-1,-1,-1,-1,-4.219328561,-23.17125049,-27.39057905,-18.59347903,-1,-1,-1,-1
1.71E+12,128,128,-1,-1,-1,-1,-4.217267043,-23.17056827,-27.38783532,-18.59318478,-1,-1,-1,-1
1.71E+12,128,128,-1,-1,-1,-1,-4.215199919,-23.16985,-27.38504992,-18.59289876,-1,-1,-1,-1
1.71E+12,128,128,-1,-1,-1,-1,-4.213128745,-23.16909635,-27.38222509,-18.59262152,-1,-1,-1,-1
1.71E+12,128,128,-1,-1,-1,-1,-4.211055234,-23.16830803,-27.37936327,-18.59235359,-1,-1,-1,-1
1.71E+12,128,128,-1,-1,-1,-1,-4.208981233,-23.16748585,-27.37646708,-18.59209546,-1,-1,-1,-1
1.71E+12,128,128,-1,-1,-1,-1,-4.20690866,-23.16663071,-27.37353937,-18.59184758,-1,-1,-1,-1
1.71E+12,128,128,-1,-1,-1,-1,-4.204839467,-23.16574365,-27.37058311,-18.59161032,-1,-1,-1,-1
1.71E+12,128,128,-1,-1,-1,-1,-4.20277558,-23.16482584,-27.36760142,-18.59138405,-1,-1,-1,-1
1.71E+12,128,128,-1,-1,-1,-1,-4.200718881,-23.16387859,-27.36459747,-18.59116914,-1,-1,-1,-1
1.71E+12,128,128,-1,-1,-1,-1,-4.198671194,-23.16290327,-27.36157447,-18.59096595,-1,-1,-1,-1
1.71E+12,128,128,-1,-1,-1,-1,-4.196634285,-23.16190132,-27.3585356,-18.59077475,-1,-1,-1,-1
1.71E+12,128,128,-1,-1,-1,-1,-4.194609871,-23.16087413,-27.355484,-18.59059579,-1,-1,-1,-1
1.71E+12,128,128,-1,-1,-1,-1,-4.19259965,-23.15982315,-27.3524228,-18.59042924,-1,-1,-1,-1
1.71E+12,128,128,-1,-1,-1,-1,-4.19060532,-23.15874988,-27.3493552,-18.59027532,-1,-1,-1,-1
1.71E+12,128,128,-1,-1,-1,-1,-4.188628589,-23.15765589,-27.34628448,-18.59013419,-1,-1,-1,-1
1.71E+12,128,128,-1,-1,-1,-1,-4.186671276,-23.15654284,-27.34321412,-18.59000597,-1,-1,-1,-1
1.71E+12,128,128,-1,-1,-1,-1,-4.184735293,-23.15541242,-27.34014772,-18.58989071,-1,-1,-1,-1
1.71E+12,128,128,-1,-1,-1,-1,-4.182822569,-23.15426639,-27.33708896,-18.58978845,-1,-1,-1,-1
1.71E+12,128,128,-1,-1,-1,-1,-4.180935005,-23.15310648,-27.33404148,-18.58969926,-1,-1,-1,-1
1.71E+12,128,128,-1,-1,-1,-1,-4.179074451,-23.15193442,-27.33100887,-18.58962316,-1,-1,-1,-1
1.71E+12,128,128,-1,-1,-1,-1,-4.177242732,-23.15075193,-27.32799466,-18.58956009,-1,-1,-1,-1
1.71E+12,128,128,-1,-1,-1,-1,-4.175441681,-23.14956068,-27.32500236,-18.58951002,-1,-1,-1,-1
1.71E+12,128,128,-1,-1,-1,-1,-4.173673203,-23.14836239,-27.3220356,-18.58947293,-1,-1,-1,-1
1.71E+12,128,128,-1,-1,-1,-1,-4.171939265,-23.14715883,-27.3190981,-18.58944876,-1,-1,-1,-1
1.71E+12,128,128,-1,-1,-1,-1,-4.170241862,-23.14595179,-27.31619365,-18.58943746,-1,-1,-1,-1
1.71E+12,128,128,-1,-1,-1,-1,-4.168582964,-23.14474305,-27.31332601,-18.58943901,-1,-1,-1,-1
1.71E+12,128,128,-1,-1,-1,-1,-4.16696448,-23.14353433,-27.31049881,-18.58945344,-1,-1,-1,-1
1.71E+12,128,128,-1,-1,-1,-1,-4.165388267,-23.14232727,-27.30771554,-18.58948073,-1,-1,-1,-1
1.71E+12,128,128,-1,-1,-1,-1,-4.163856137,-23.14112341,-27.30497954,-18.58952088,-1,-1,-1,-1
1.71E+12,128,128,-1,-1,-1,-1,-4.16236989,-23.13992421,-27.3022941,-18.58957387,-1,-1,-1,-1
1.71E+12,128,128,-1,-1,-1,-1,-4.160931319,-23.13873114,-27.29966245,-18.58963968,-1,-1,-1,-1
1.71E+12,128,128,-1,-1,-1,-1,-4.159542179,-23.13754578,-27.29708796,-18.58971831,-1,-1,-1,-1
1.71E+12,128,128,-1,-1,-1,-1,-4.158204192,-23.13636986,-27.29457406,-18.58980976,-1,-1,-1,-1
1.71E+12,128,128,-1,-1,-1,-1,-4.156919084,-23.13520516,-27.29212424,-18.58991408,-1,-1,-1,-1
1.71E+12,128,128,-1,-1,-1,-1,-4.15568859,-23.13405343,-27.28974202,-18.59003135,-1,-1,-1,-1
1.71E+12,128,128,-1,-1,-1,-1,-4.154514423,-23.13291644,-27.28743086,-18.59016163,-1,-1,-1,-1
1.71E+12,128,128,-1,-1,-1,-1,-4.153398253,-23.13179595,-27.2851942,-18.59030492,-1,-1,-1,-1
1.71E+12,128,128,-1,-1,-1,-1,-4.152341725,-23.13069368,-27.28303541,-18.59046119,-1,-1,-1,-1
1.71E+12,128,128,-1,-1,-1,-1,-4.151346473,-23.12961143,-27.2809579,-18.59063042,-1,-1,-1,-1
1.71E+12,128,128,-1,-1,-1,-1,-4.1504141,-23.12855119,-27.27896529,-18.59081255,-1,-1,-1,-1
1.71E+12,128,128,-1,-1,-1,-1,-4.149546142,-23.12751537,-27.27706151,-18.59100755,-1,-1,-1,-1
1.71E+12,128,128,-1,-1,-1,-1,-4.148744047,-23.1265066,-27.27525065,-18.59121531,-1,-1,-1,-1
1.71E+12,128,128,-1,-1,-1,-1,-4.148009143,-23.12552762,-27.27353677,-18.59143568,-1,-1,-1,-1
1.71E+12,128,128,-1,-1,-1,-1,-4.147342609,-23.12458083,-27.27192344,-18.59166855,-1,-1,-1,-1
1.71E+12,128,128,-1,-1,-1,-1,-4.146745396,-23.123668,-27.2704134,-18.59191384,-1,-1,-1,-1
1.71E+12,128,128,-1,-1,-1,-1,-4.146218,-23.1227905,-27.2690085,-18.59217142,-1,-1,-1,-1
1.71E+12,128,128,-1,-1,-1,-1,-4.145760359,-23.1219495,-27.26770986,-18.59244116,-1,-1,-1,-1
1.71E+12,128,128,-1,-1,-1,-1,-4.145372079,-23.12114602,-27.2665181,-18.59272285,-1,-1,-1,-1
1.71E+12,128,128,-1,-1,-1,-1,-4.145052703,-23.12038098,-27.26543368,-18.59301624,-1,-1,-1,-1
1.71E+12,128,128,-1,-1,-1,-1,-4.144801862,-23.11965516,-27.26445702,-18.59332114,-1,-1,-1,-1
1.71E+12,128,128,-1,-1,-1,-1,-4.144619347,-23.11896911,-27.26358845,-18.59363731,-1,-1,-1,-1
1.71E+12,128,128,-1,-1,-1,-1,-4.144505132,-23.11832309,-27.26282822,-18.59396455,-1,-1,-1,-1
1.71E+12,128,128,-1,-1,-1,-1,-4.144459286,-23.11771714,-27.26217643,-18.59430269,-1,-1,-1,-1
1.71E+12,128,128,-1,-1,-1,-1,-4.144481849,-23.11715108,-27.26163293,-18.59465154,-1,-1,-1,-1
1.71E+12,128,128,-1,-1,-1,-1,-4.144572771,-23.11662457,-27.26119734,-18.59501093,-1,-1,-1,-1
1.71E+12,128,128,-1,-1,-1,-1,-4.144731914,-23.1161372,-27.26086911,-18.59538074,-1,-1,-1,-1
1.71E+12,128,128,-1,-1,-1,-1,-4.144959056,-23.1156887,-27.26064776,-18.59576091,-1,-1,-1,-1
1.71E+12,128,128,-1,-1,-1,-1,-4.145253918,-23.11527892,-27.26053284,-18.59615144,-1,-1,-1,-1
1.71E+12,128,128,-1,-1,-1,-1,-4.145616165,-23.11490778,-27.26052395,-18.59655233,-1,-1,-1,-1
1.71E+12,128,128,-1,-1,-1,-1,-4.146045363,-23.11457525,-27.26062062,-18.5969636,-1,-1,-1,-1
1.71E+12,128,128,-1,-1,-1,-1,-4.146540931,-23.1142813,-27.26082223,-18.59738529,-1,-1,-1,-1
1.71E+12,128,128,-1,-1,-1,-1,-4.147102164,-23.1140258,-27.26112796,-18.59781751,-1,-1,-1,-1
1.71E+12,128,128,-1,-1,-1,-1,-4.147728256,-23.11380855,-27.2615368,-18.59826031,-1,-1,-1,-1
1.71E+12,128,128,-1,-1,-1,-1,-4.148418235,-23.11362925,-27.26204748,-18.59871381,-1,-1,-1,-1
1.71E+12,128,128,-1,-1,-1,-1,-4.149170984,-23.1134876,-27.26265858,-18.59917814,-1,-1,-1,-1
1.71E+12,128,128,-1,-1,-1,-1,-4.149985276,-23.1133833,-27.26336858,-18.5996534,-1,-1,-1,-1
1.71E+12,128,128,-1,-1,-1,-1,-4.150859792,-23.11331608,-27.26417587,-18.60013969,-1,-1,-1,-1
1.71E+12,128,128,-1,-1,-1,-1,-4.151793114,-23.11328566,-27.26507877,-18.60063705,-1,-1,-1,-1
1.71E+12,128,128,-1,-1,-1,-1,-4.15278373,-23.11329174,-27.26607547,-18.60114552,-1,-1,-1,-1
1.71E+12,128,128,-1,-1,-1,-1,-4.153830081,-23.11333394,-27.26716402,-18.60166519,-1,-1,-1,-1
1.71E+12,128,128,-1,-1,-1,-1,-4.154930521,-23.11341168,-27.2683422,-18.6021961,-1,-1,-1,-1
1.71E+12,128,128,-1,-1,-1,-1,-4.156083255,-23.11352423,-27.26960748,-18.60273831,-1,-1,-1,-1
1.71E+12,128,128,-1,-1,-1,-1,-4.157286354,-23.11367074,-27.27095709,-18.60329184,-1,-1,-1,-1
1.71E+12,128,128,-1,-1,-1,-1,-4.158537729,-23.11385033,-27.27238806,-18.60385663,-1,-1,-1,-1
1.71E+12,128,128,-1,-1,-1,-1,-4.159835189,-23.11406214,-27.27389733,-18.60443267,-1,-1,-1,-1
1.71E+12,128,128,-1,-1,-1,-1,-4.16117656,-23.11430532,-27.27548188,-18.60501995,-1,-1,-1,-1
1.71E+12,128,128,-1,-1,-1,-1,-4.162559692,-23.11457899,-27.27713868,-18.60561843,-1,-1,-1,-1
1.71E+12,128,128,-1,-1,-1,-1,-4.163982392,-23.1148823,-27.27886469,-18.60622805,-1,-1,-1,-1
1.71E+12,128,128,-1,-1,-1,-1,-4.165442402,-23.11521425,-27.28065665,-18.60684877,-1,-1,-1,-1
1.71E+12,128,128,-1,-1,-1,-1,-4.166937421,-23.11557375,-27.28251117,-18.60748048,-1,-1,-1,-1
1.71E+12,128,128,-1,-1,-1,-1,-4.168465142,-23.11595961,-27.28442475,-18.60812304,-1,-1,-1,-1
1.71E+12,128,128,-1,-1,-1,-1,-4.170023229,-23.1163706,-27.28639383,-18.60877632,-1,-1,-1,-1
1.71E+12,128,128,-1,-1,-1,-1,-4.171609279,-23.11680551,-27.28841479,-18.60944019,-1,-1,-1,-1
1.71E+12,128,128,-1,-1,-1,-1,-4.173220871,-23.11726325,-27.29048412,-18.61011454,-1,-1,-1,-1
1.71E+12,128,128,-1,-1,-1,-1,-4.174855619,-23.11774272,-27.29259834,-18.6107992,-1,-1,-1,-1
1.71E+12,128,128,-1,-1,-1,-1,-4.176511165,-23.11824277,-27.29475394,-18.61149394,-1,-1,-1,-1
1.71E+12,128,128,-1,-1,-1,-1,-4.178185127,-23.11876216,-27.29694729,-18.61219859,-1,-1,-1,-1
1.71E+12,128,128,-1,-1,-1,-1,-4.179875045,-23.11929962,-27.29917467,-18.61291298,-1,-1,-1,-1
1.71E+12,128,128,-1,-1,-1,-1,-4.18157837,-23.11985385,-27.30143222,-18.61363683,-1,-1,-1,-1
1.71E+12,128,128,-1,-1,-1,-1,-4.183292522,-23.12042351,-27.30371604,-18.61436985,-1,-1,-1,-1
1.71E+12,128,128,-1,-1,-1,-1,-4.185014966,-23.1210073,-27.30602227,-18.6151117,-1,-1,-1,-1
1.71E+12,128,128,-1,-1,-1,-1,-4.186743252,-23.1216039,-27.30834716,-18.61586208,-1,-1,-1,-1
1.71E+12,128,128,-1,-1,-1,-1,-4.188475032,-23.12221203,-27.31068706,-18.61662071,-1,-1,-1,-1
1.71E+12,128,128,-1,-1,-1,-1,-4.190208054,-23.12283041,-27.31303846,-18.61738728,-1,-1,-1,-1
1.71E+12,128,128,-1,-1,-1,-1,-4.191940126,-23.12345777,-27.31539789,-18.61816147,-1,-1,-1,-1
1.71E+12,128,128,-1,-1,-1,-1,-4.193669095,-23.1240928,-27.3177619,-18.61894293,-1,-1,-1,-1
1.71E+12,128,128,-1,-1,-1,-1,-4.19539284,-23.12473421,-27.32012705,-18.61973128,-1,-1,-1,-1
1.71E+12,128,128,-1,-1,-1,-1,-4.197109263,-23.12538064,-27.3224899,-18.62052615,-1,-1,-1,-1
1.71E+12,128,128,-1,-1,-1,-1,-4.198816309,-23.12603078,-27.32484709,-18.62132722,-1,-1,-1,-1
1.71E+12,128,128,-1,-1,-1,-1,-4.200511995,-23.12668341,-27.32719541,-18.62213411,-1,-1,-1,-1
1.71E+12,128,128,-1,-1,-1,-1,-4.202194409,-23.12733745,-27.32953186,-18.62294643,-1,-1,-1,-1
1.71E+12,128,128,-1,-1,-1,-1,-4.203861722,-23.12799186,-27.33185358,-18.6237638,-1,-1,-1,-1
1.71E+12,128,128,-1,-1,-1,-1,-4.205512192,-23.12864561,-27.3341578,-18.62458586,-1,-1,-1,-1
1.71E+12,128,128,-1,-1,-1,-1,-4.207144164,-23.12929768,-27.33644185,-18.62541225,-1,-1,-1,-1
1.71E+12,128,128,-1,-1,-1,-1,-4.208756057,-23.12994706,-27.33870311,-18.62624259,-1,-1,-1,-1
1.71E+12,128,128,-1,-1,-1,-1,-4.210346373,-23.13059267,-27.34093904,-18.62707645,-1,-1,-1,-1
1.71E+12,128,128,-1,-1,-1,-1,-4.21191367,-23.13123349,-27.34314715,-18.62791338,-1,-1,-1,-1
1.71E+12,128,128,-1,-1,-1,-1,-4.213456512,-23.13186855,-27.34532507,-18.62875297,-1,-1,-1,-1
1.71E+12,128,128,-1,-1,-1,-1,-4.214973549,-23.13249702,-27.34747057,-18.62959476,-1,-1,-1,-1
1.71E+12,128,128,-1,-1,-1,-1,-4.216463607,-23.13311814,-27.34958175,-18.6304383,-1,-1,-1,-1
1.71E+12,128,128,-1,-1,-1,-1,-4.217925634,-23.13373119,-27.35165682,-18.63128313,-1,-1,-1,-1
1.71E+12,128,128,-1,-1,-1,-1,-4.219358664,-23.13433549,-27.35369415,-18.63212883,-1,-1,-1,-1
1.71E+12,128,128,-1,-1,-1,-1,-4.220761772,-23.13493038,-27.35569215,-18.63297499,-1,-1,-1,-1
1.71E+12,128,128,-1,-1,-1,-1,-4.22213405,-23.13551519,-27.35764924,-18.63382114,-1,-1,-1,-1
1.71E+12,128,128,-1,-1,-1,-1,-4.223474621,-23.13608924,-27.35956386,-18.63466682,-1,-1,-1,-1
1.71E+12,128,128,-1,-1,-1,-1,-4.224782648,-23.13665187,-27.36143452,-18.63551151,-1,-1,-1,-1
1.71E+12,128,128,-1,-1,-1,-1,-4.226057416,-23.13720251,-27.36325992,-18.6363547,-1,-1,-1,-1
1.71E+12,128,128,-1,-1,-1,-1,-4.227298378,-23.13774065,-27.36503903,-18.63719594,-1,-1,-1,-1
1.71E+12,128,128,-1,-1,-1,-1,-4.228505105,-23.13826588,-27.36677099,-18.63803478,-1,-1,-1,-1
1.71E+12,128,128,-1,-1,-1,-1,-4.229677269,-23.1387778,-27.36845507,-18.63887074,-1,-1,-1,-1
1.71E+12,128,128,-1,-1,-1,-1,-4.230814641,-23.13927599,-27.37009063,-18.63970334,-1,-1,-1,-1
1.71E+12,128,128,-1,-1,-1,-1,-4.23191708,-23.13976002,-27.3716771,-18.64053211,-1,-1,-1,-1
1.71E+12,128,128,-1,-1,-1,-1,-4.232984511,-23.14022945,-27.37321396,-18.64135658,-1,-1,-1,-1
1.71E+12,128,128,-1,-1,-1,-1,-4.234016926,-23.14068388,-27.37470081,-18.64217626,-1,-1,-1,-1
1.71E+12,128,128,-1,-1,-1,-1,-4.235014391,-23.14112299,-27.37613738,-18.64299071,-1,-1,-1,-1
1.71E+12,128,128,-1,-1,-1,-1,-4.235977064,-23.14154655,-27.37752361,-18.64379949,-1,-1,-1,-1
1.71E+12,128,128,-1,-1,-1,-1,-4.236905194,-23.14195442,-27.37885961,-18.6446022,-1,-1,-1,-1
1.71E+12,128,128,-1,-1,-1,-1,-4.237799114,-23.14234649,-27.38014561,-18.6453985,-1,-1,-1,-1
1.71E+12,128,128,-1,-1,-1,-1,-4.238659233,-23.14272268,-27.38138191,-18.646188,-1,-1,-1,-1
1.71E+12,128,128,-1,-1,-1,-1,-4.239486,-23.14308289,-27.38256889,-18.64697025,-1,-1,-1,-1
1.71E+12,128,128,-1,-1,-1,-1,-4.240279928,-23.14342702,-27.38370695,-18.64774483,-1,-1,-1,-1
1.71E+12,128,128,-1,-1,-1,-1,-4.241041595,-23.14375494,-27.38479654,-18.64851135,-1,-1,-1,-1
1.71E+12,128,128,-1,-1,-1,-1,-4.241771602,-23.14406653,-27.38583813,-18.64926945,-1,-1,-1,-1
1.71E+12,128,128,-1,-1,-1,-1,-4.24247059,-23.1443617,-27.38683229,-18.6500188,-1,-1,-1,-1
1.71E+12,128,128,-1,-1,-1,-1,-4.243139266,-23.14464045,-27.38777971,-18.65075908,-1,-1,-1,-1
1.71E+12,128,128,-1,-1,-1,-1,-4.243778338,-23.14490284,-27.38868118,-18.65148995,-1,-1,-1,-1
1.71E+12,128,128,-1,-1,-1,-1,-4.244388495,-23.14514899,-27.38953749,-18.6522111,-1,-1,-1,-1
1.71E+12,128,128,-1,-1,-1,-1,-4.244970423,-23.14537893,-27.39034935,-18.65292222,-1,-1,-1,-1
1.71E+12,128,128,-1,-1,-1,-1,-4.245524775,-23.14559269,-27.39111746,-18.65362304,-1,-1,-1,-1
1.71E+12,128,128,-1,-1,-1,-1,-4.246052185,-23.14579026,-27.39184245,-18.65431325,-1,-1,-1,-1
1.71E+12,128,128,-1,-1,-1,-1,-4.246553292,-23.14597162,-27.39252492,-18.65499253,-1,-1,-1,-1
1.71E+12,128,128,-1,-1,-1,-1,-4.24702876,-23.14613675,-27.39316551,-18.6556606,-1,-1,-1,-1
1.71E+12,128,128,-1,-1,-1,-1,-4.24747929,-23.14628569,-27.39376498,-18.6563172,-1,-1,-1,-1
1.71E+12,128,128,-1,-1,-1,-1,-4.247905603,-23.14641857,-27.39432417,-18.65696211,-1,-1,-1,-1
1.71E+12,128,128,-1,-1,-1,-1,-4.248308384,-23.14653559,-27.39484398,-18.6575951,-1,-1,-1,-1
1.71E+12,128,128,-1,-1,-1,-1,-4.248688236,-23.14663698,-27.39532521,-18.65821595,-1,-1,-1,-1
1.71E+12,128,128,-1,-1,-1,-1,-4.249045691,-23.14672296,-27.39576866,-18.65882449,-1,-1,-1,-1
1.71E+12,128,128,-1,-1,-1,-1,-4.24938126,-23.14679379,-27.39617505,-18.65942054,-1,-1,-1,-1
1.71E+12,128,128,-1,-1,-1,-1,-4.249695479,-23.14684965,-27.39654513,-18.66000391,-1,-1,-1,-1
1.71E+12,128,128,-1,-1,-1,-1,-4.249988951,-23.14689071,-27.39687966,-18.66057437,-1,-1,-1,-1
1.71E+12,128,128,-1,-1,-1,-1,-4.250262326,-23.14691707,-27.3971794,-18.66113179,-1,-1,-1,-1
1.71E+12,128,128,-1,-1,-1,-1,-4.25051628,-23.14692886,-27.39744514,-18.66167606,-1,-1,-1,-1
1.71E+12,128,128,-1,-1,-1,-1,-4.250751521,-23.14692621,-27.39767773,-18.66220708,-1,-1,-1,-1
1.71E+12,128,128,-1,-1,-1,-1,-4.250968776,-23.14690932,-27.3978781,-18.66272475,-1,-1,-1,-1
1.71E+12,128,128,-1,-1,-1,-1,-4.251168851,-23.14687839,-27.39804724,-18.66322901,-1,-1,-1,-1
1.71E+12,128,128,-1,-1,-1,-1,-4.25135264,-23.1468336,-27.39818624,-18.6637198,-1,-1,-1,-1
1.71E+12,128,128,-1,-1,-1,-1,-4.251521019,-23.14677503,-27.39829605,-18.66419708,-1,-1,-1,-1
1.71E+12,128,128,-1,-1,-1,-1,-4.251674779,-23.14670275,-27.39837753,-18.66466078,-1,-1,-1,-1
1.71E+12,128,128,-1,-1,-1,-1,-4.251814617,-23.14661688,-27.39843149,-18.66511083,-1,-1,-1,-1
1.71E+12,128,128,-1,-1,-1,-1,-4.251941209,-23.14651763,-27.39845883,-18.6655472,-1,-1,-1,-1
1.71E+12,128,128,-1,-1,-1,-1,-4.252055311,-23.1464053,-27.39846062,-18.66596996,-1,-1,-1,-1
1.71E+12,128,128,-1,-1,-1,-1,-4.252157716,-23.14628025,-27.39843797,-18.66637917,-1,-1,-1,-1
1.71E+12,128,128,-1,-1,-1,-1,-4.252249192,-23.14614279,-27.39839198,-18.66677489,-1,-1,-1,-1
1.71E+12,128,128,-1,-1,-1,-1,-4.252330417,-23.14599321,-27.39832363,-18.66715712,-1,-1,-1,-1
1.71E+12,128,128,-1,-1,-1,-1,-4.25240189,-23.14583178,-27.39823367,-18.66752587,-1,-1,-1,-1
1.71E+12,128,128,-1,-1,-1,-1,-4.252463955,-23.1456587,-27.39812266,-18.6678812,-1,-1,-1,-1
1.71E+12,128,128,-1,-1,-1,-1,-4.252516789,-23.1454742,-27.39799099,-18.66822314,-1,-1,-1,-1
1.71E+12,128,128,-1,-1,-1,-1,-4.252560478,-23.14527855,-27.39783903,-18.66855178,-1,-1,-1,-1
1.71E+12,128,128,-1,-1,-1,-1,-4.252595138,-23.14507214,-27.39766728,-18.66886722,-1,-1,-1,-1
1.71E+12,128,128,-1,-1,-1,-1,-4.252620995,-23.1448554,-27.3974764,-18.66916955,-1,-1,-1,-1
1.71E+12,128,128,-1,-1,-1,-1,-4.252638361,-23.14462878,-27.39726714,-18.66945893,-1,-1,-1,-1
1.71E+12,128,128,-1,-1,-1,-1,-4.252647612,-23.14439269,-27.3970403,-18.66973553,-1,-1,-1,-1
1.71E+12,128,128,-1,-1,-1,-1,-4.252649139,-23.14414755,-27.39679669,-18.66999947,-1,-1,-1,-1
1.71E+12,128,128,-1,-1,-1,-1,-4.252643332,-23.14389367,-27.396537,-18.67025089,-1,-1,-1,-1
1.71E+12,128,128,-1,-1,-1,-1,-4.252630608,-23.14363126,-27.39626187,-18.67048992,-1,-1,-1,-1
1.71E+12,128,128,-1,-1,-1,-1,-4.252611359,-23.14336056,-27.39597192,-18.67071671,-1,-1,-1,-1
1.71E+12,128,128,-1,-1,-1,-1,-4.252585963,-23.14308183,-27.39566779,-18.67093147,-1,-1,-1,-1
1.71E+12,128,128,-1,-1,-1,-1,-4.252554784,-23.14279543,-27.39535022,-18.6711344,-1,-1,-1,-1
1.71E+12,128,128,-1,-1,-1,-1,-4.252518174,-23.14250176,-27.39501993,-18.67132573,-1,-1,-1,-1
1.71E+12,128,128,-1,-1,-1,-1,-4.252476466,-23.14220119,-27.39467766,-18.67150565,-1,-1,-1,-1
1.71E+12,128,128,-1,-1,-1,-1,-4.252429957,-23.14189407,-27.39432403,-18.67167436,-1,-1,-1,-1
1.71E+12,128,128,-1,-1,-1,-1,-4.252378895,-23.1415807,-27.39395959,-18.67183203,-1,-1,-1,-1
1.71E+12,128,128,-1,-1,-1,-1,-4.252323497,-23.14126134,-27.39358484,-18.67197884,-1,-1,-1,-1
1.71E+12,128,128,-1,-1,-1,-1,-4.252263961,-23.14093628,-27.39320024,-18.67211499,-1,-1,-1,-1
1.71E+12,128,128,-1,-1,-1,-1,-4.252200464,-23.14060583,-27.39280629,-18.67224067,-1,-1,-1,-1
1.71E+12,128,128,-1,-1,-1,-1,-4.252133192,-23.14027038,-27.39240357,-18.67235612,-1,-1,-1,-1
1.71E+12,128,128,-1,-1,-1,-1,-4.252062379,-23.13993041,-27.39199279,-18.67246161,-1,-1,-1,-1
1.71E+12,128,128,-1,-1,-1,-1,-4.251988316,-23.13958647,-27.39157478,-18.67255738,-1,-1,-1,-1
1.71E+12,128,128,-1,-1,-1,-1,-4.251911353,-23.13923911,-27.39115046,-18.67264373,-1,-1,-1,-1
1.71E+12,128,128,-1,-1,-1,-1,-4.251831889,-23.13888884,-27.39072073,-18.67272095,-1,-1,-1,-1
1.71E+12,128,128,-1,-1,-1,-1,-4.251750348,-23.13853613,-27.39028648,-18.67278924,-1,-1,-1,-1
1.71E+12,128,128,-1,-1,-1,-1,-4.251667142,-23.13818147,-27.38984861,-18.67284879,-1,-1,-1,-1
1.71E+12,128,128,-1,-1,-1,-1,-4.251582643,-23.13782538,-27.38940802,-18.67289984,-1,-1,-1,-1
1.71E+12,128,128,-1,-1,-1,-1,-4.251497204,-23.13746843,-27.38896563,-18.67294261,-1,-1,-1,-1
1.71E+12,128,128,-1,-1,-1,-1,-4.251411183,-23.13711129,-27.38852247,-18.67297731,-1,-1,-1,-1
1.71E+12,128,128,-1,-1,-1,-1,-4.251324982,-23.13675466,-27.38807964,-18.67300421,-1,-1,-1,-1
1.71E+12,128,128,-1,-1,-1,-1,-4.251239084,-23.13639922,-27.38763831,-18.67302356,-1,-1,-1,-1
1.71E+12,128,128,-1,-1,-1,-1,-4.251154041,-23.1360456,-27.38719964,-18.6730356,-1,-1,-1,-1
1.71E+12,128,128,-1,-1,-1,-1,-4.251070438,-23.13569439,-27.38676483,-18.67304056,-1,-1,-1,-1
1.71E+12,128,128,-1,-1,-1,-1,-4.250988883,-23.13534612,-27.386335,-18.67303865,-1,-1,-1,-1
1.71E+12,128,128,-1,-1,-1,-1,-4.25091003,-23.13500134,-27.38591137,-18.67303006,-1,-1,-1,-1
1.71E+12,128,128,-1,-1,-1,-1,-4.250834549,-23.13466067,-27.38549522,-18.67301504,-1,-1,-1,-1
1.71E+12,128,128,-1,-1,-1,-1,-4.250763048,-23.13432479,-27.38508784,-18.67299378,-1,-1,-1,-1
1.71E+12,128,128,-1,-1,-1,-1,-4.250696009,-23.13399451,-27.38469052,-18.67296647,-1,-1,-1,-1
1.71E+12,128,128,-1,-1,-1,-1,-4.250633791,-23.13367065,-27.38430444,-18.67293327,-1,-1,-1,-1
1.71E+12,128,128,-1,-1,-1,-1,-4.250576677,-23.13335403,-27.38393071,-18.67289435,-1,-1,-1,-1
1.71E+12,128,128,-1,-1,-1,-1,-4.250524933,-23.13304531,-27.38357024,-18.67284984,-1,-1,-1,-1
1.71E+12,128,128,-1,-1,-1,-1,-4.250478855,-23.13274492,-27.38322378,-18.67279983,-1,-1,-1,-1
1.71E+12,128,128,-1,-1,-1,-1,-4.250438755,-23.13245318,-27.38289194,-18.67274441,-1,-1,-1,-1
1.71E+12,128,128,-1,-1,-1,-1,-4.250404931,-23.13217034,-27.38257527,-18.67268366,-1,-1,-1,-1
1.71E+12,128,128,-1,-1,-1,-1,-4.25037767,-23.13189658,-27.38227425,-18.67261772,-1,-1,-1,-1
1.71E+12,128,128,-1,-1,-1,-1,-4.250357226,-23.13163209,-27.38198931,-18.67254672,-1,-1,-1,-1
1.71E+12,128,128,-1,-1,-1,-1,-4.25034376,-23.13137702,-27.38172078,-18.67247075,-1,-1,-1,-1
1.71E+12,128,128,-1,-1,-1,-1,-4.250337327,-23.13113145,-27.38146877,-18.67238992,-1,-1,-1,-1
1.71E+12,128,128,-1,-1,-1,-1,-4.250337928,-23.13089523,-27.38123316,-18.67230435,-1,-1,-1,-1
1.71E+12,128,128,-1,-1,-1,-1,-4.250345569,-23.13066781,-27.38101338,-18.67221421,-1,-1,-1,-1
1.71E+12,128,128,-1,-1,-1,-1,-4.250360306,-23.13044817,-27.38080847,-18.6721197,-1,-1,-1,-1
1.71E+12,128,128,-1,-1,-1,-1,-4.25038228,-23.1302349,-27.38061718,-18.67202104,-1,-1,-1,-1
1.71E+12,128,128,-1,-1,-1,-1,-4.250411726,-23.13002656,-27.38043828,-18.67191846,-1,-1,-1,-1
1.71E+12,128,128,-1,-1,-1,-1,-4.250448954,-23.12982204,-27.38027099,-18.67181228,-1,-1,-1,-1
1.71E+12,128,128,-1,-1,-1,-1,-4.250494391,-23.12962075,-27.38011514,-18.67170285,-1,-1,-1,-1
1.71E+12,128,128,-1,-1,-1,-1,-4.250548698,-23.12942223,-27.37997093,-18.67159049,-1,-1,-1,-1
1.71E+12,128,128,-1,-1,-1,-1,-4.25061271,-23.129226,-27.37983871,-18.67147561,-1,-1,-1,-1
1.71E+12,128,128,-1,-1,-1,-1,-4.250687306,-23.12903167,-27.37971898,-18.67135861,-1,-1,-1,-1
1.71E+12,128,128,-1,-1,-1,-1,-4.25077334,-23.12883889,-27.37961223,-18.67123997,-1,-1,-1,-1
1.71E+12,128,128,-1,-1,-1,-1,-4.250871613,-23.12864739,-27.37951901,-18.67112011,-1,-1,-1,-1
1.71E+12,128,128,-1,-1,-1,-1,-4.250982904,-23.12845702,-27.37943992,-18.67099951,-1,-1,-1,-1
1.71E+12,128,128,-1,-1,-1,-1,-4.251107931,-23.12826772,-27.37937565,-18.67087864,-1,-1,-1,-1
1.71E+12,128,128,-1,-1,-1,-1,-4.251247335,-23.12807955,-27.37932689,-18.67075796,-1,-1,-1,-1
1.71E+12,128,128,-1,-1,-1,-1,-4.25140168,-23.12789262,-27.3792943,-18.67063793,-1,-1,-1,-1
1.71E+12,128,128,-1,-1,-1,-1,-4.251571466,-23.12770695,-27.37927841,-18.67051898,-1,-1,-1,-1
1.71E+12,128,128,-1,-1,-1,-1,-4.251757124,-23.12752239,-27.37927951,-18.67040154,-1,-1,-1,-1
1.71E+12,128,128,-1,-1,-1,-1,-4.251959008,-23.12733851,-27.37929752,-18.67028603,-1,-1,-1,-1
1.71E+12,128,128,-1,-1,-1,-1,-4.252177395,-23.12715467,-27.37933206,-18.67017279,-1,-1,-1,-1
1.71E+12,128,128,-1,-1,-1,-1,-4.252412479,-23.12697008,-27.37938256,-18.67006217,-1,-1,-1,-1
1.71E+12,128,128,-1,-1,-1,-1,-4.252664461,-23.12678387,-27.37944833,-18.66995452,-1,-1,-1,-1
1.71E+12,128,128,-1,-1,-1,-1,-4.252933574,-23.12659516,-27.37952873,-18.6698502,-1,-1,-1,-1
1.71E+12,128,128,-1,-1,-1,-1,-4.253220061,-23.1264031,-27.37962316,-18.66974956,-1,-1,-1,-1
1.71E+12,128,128,-1,-1,-1,-1,-4.253524128,-23.12620684,-27.37973097,-18.66965294,-1,-1,-1,-1
1.71E+12,128,128,-1,-1,-1,-1,-4.253845889,-23.12600552,-27.37985141,-18.66956068,-1,-1,-1,-1
1.71E+12,128,128,-1,-1,-1,-1,-4.254185345,-23.1257982,-27.37998354,-18.66947305,-1,-1,-1,-1
1.71E+12,128,128,-1,-1,-1,-1,-4.254542378,-23.12558384,-27.38012622,-18.66939037,-1,-1,-1,-1
1.71E+12,128,128,-1,-1,-1,-1,-4.254916777,-23.12536137,-27.38027815,-18.66931299,-1,-1,-1,-1
1.71E+12,128,128,-1,-1,-1,-1,-4.255308276,-23.12512969,-27.38043797,-18.66924124,-1,-1,-1,-1
1.71E+12,128,128,-1,-1,-1,-1,-4.255716598,-23.12488776,-27.38060436,-18.66917542,-1,-1,-1,-1
1.71E+12,128,128,-1,-1,-1,-1,-4.256141525,-23.12463465,-27.38077617,-18.66911589,-1,-1,-1,-1
1.71E+12,128,128,-1,-1,-1,-1,-4.256582966,-23.12436946,-27.38095243,-18.669063,-1,-1,-1,-1
1.71E+12,128,128,-1,-1,-1,-1,-4.257040947,-23.12409132,-27.38113226,-18.66901715,-1,-1,-1,-1
1.71E+12,128,128,-1,-1,-1,-1,-4.257515487,-23.12379928,-27.38131476,-18.66897878,-1,-1,-1,-1
1.71E+12,128,128,-1,-1,-1,-1,-4.258006535,-23.12349242,-27.38149896,-18.66894823,-1,-1,-1,-1
1.71E+12,128,128,-1,-1,-1,-1,-4.258513959,-23.12316986,-27.38168382,-18.66892581,-1,-1,-1,-1
1.71E+12,128,128,-1,-1,-1,-1,-4.25903747,-23.12283076,-27.38186823,-18.66891185,-1,-1,-1,-1
1.71E+12,128,128,-1,-1,-1,-1,-4.259576622,-23.12247435,-27.38205097,-18.66890665,-1,-1,-1,-1
1.71E+12,128,128,-1,-1,-1,-1,-4.26013092,-23.1220999,-27.38223082,-18.66891058,-1,-1,-1,-1
1.71E+12,128,128,-1,-1,-1,-1,-4.26069983,-23.12170686,-27.38240669,-18.66892399,-1,-1,-1,-1
1.71E+12,128,128,-1,-1,-1,-1,-4.261282737,-23.1212948,-27.38257754,-18.66894721,-1,-1,-1,-1
1.71E+12,128,128,-1,-1,-1,-1,-4.261878975,-23.12086337,-27.38274234,-18.66898057,-1,-1,-1,-1
1.71E+12,128,128,-1,-1,-1,-1,-4.262487865,-23.12041223,-27.3829001,-18.66902437,-1,-1,-1,-1
1.71E+12,128,128,-1,-1,-1,-1,-4.26310875,-23.11994108,-27.38304983,-18.6690789,-1,-1,-1,-1
1.71E+12,128,128,-1,-1,-1,-1,-4.263741048,-23.11944954,-27.38319059,-18.66914444,-1,-1,-1,-1
1.71E+12,128,128,-1,-1,-1,-1,-4.264384296,-23.11893726,-27.38332156,-18.66922118,-1,-1,-1,-1
1.71E+12,128,128,-1,-1,-1,-1,-4.265038116,-23.118404,-27.38344211,-18.66930937,-1,-1,-1,-1
1.71E+12,128,128,-1,-1,-1,-1,-4.265702138,-23.11784969,-27.38355183,-18.66940919,-1,-1,-1,-1
1.71E+12,128,128,-1,-1,-1,-1,-4.266375966,-23.11727443,-27.38365039,-18.6695208,-1,-1,-1,-1
1.71E+12,128,128,-1,-1,-1,-1,-4.267059193,-23.11667839,-27.38373758,-18.66964433,-1,-1,-1,-1
1.71E+12,128,128,-1,-1,-1,-1,-4.267751391,-23.1160618,-27.38381319,-18.66977988,-1,-1,-1,-1
1.71E+12,128,128,-1,-1,-1,-1,-4.268452117,-23.11542489,-27.38387701,-18.66992755,-1,-1,-1,-1
1.71E+12,128,128,-1,-1,-1,-1,-4.269160922,-23.11476788,-27.3839288,-18.67008742,-1,-1,-1,-1
1.71E+12,128,128,-1,-1,-1,-1,-4.269877306,-23.11409102,-27.38396833,-18.67025952,-1,-1,-1,-1
1.71E+12,128,128,-1,-1,-1,-1,-4.270600669,-23.11339466,-27.38399533,-18.67044383,-1,-1,-1,-1
1.71E+12,128,128,-1,-1,-1,-1,-4.271330318,-23.11267933,-27.38400965,-18.67064028,-1,-1,-1,-1
1.71E+12,128,128,-1,-1,-1,-1,-4.272065461,-23.11194574,-27.3840112,-18.67084878,-1,-1,-1,-1
1.71E+12,128,128,-1,-1,-1,-1,-4.272805229,-23.1111948,-27.38400003,-18.67106923,-1,-1,-1,-1
1.71E+12,128,128,-1,-1,-1,-1,-4.273548756,-23.11042747,-27.38397623,-18.67130146,-1,-1,-1,-1
1.71E+12,128,128,-1,-1,-1,-1,-4.274295206,-23.10964481,-27.38394002,-18.67154526,-1,-1,-1,-1
1.71E+12,128,128,-1,-1,-1,-1,-4.275043735,-23.10884789,-27.38389163,-18.6718004,-1,-1,-1,-1
1.71E+12,128,128,-1,-1,-1,-1,-4.275793543,-23.10803779,-27.38383133,-18.67206661,-1,-1,-1,-1
1.71E+12,128,128,-1,-1,-1,-1,-4.276543887,-23.10721558,-27.38375947,-18.67234356,-1,-1,-1,-1
1.71E+12,128,128,-1,-1,-1,-1,-4.27729404,-23.10638244,-27.38367648,-18.67263091,-1,-1,-1,-1
1.71E+12,128,128,-1,-1,-1,-1,-4.278043284,-23.10553967,-27.38358296,-18.67292832,-1,-1,-1,-1
1.71E+12,128,128,-1,-1,-1,-1,-4.278790894,-23.10468872,-27.38347962,-18.67323544,-1,-1,-1,-1
1.71E+12,128,128,-1,-1,-1,-1,-4.279536153,-23.10383106,-27.38336721,-18.67355186,-1,-1,-1,-1
1.71E+12,128,128,-1,-1,-1,-1,-4.280278314,-23.10296818,-27.3832465,-18.67387712,-1,-1,-1,-1
1.71E+12,128,128,-1,-1,-1,-1,-4.281016542,-23.10210158,-27.38311812,-18.6742107,-1,-1,-1,-1
1.71E+12,128,128,-1,-1,-1,-1,-4.281749866,-23.10123273,-27.3829826,-18.67455208,-1,-1,-1,-1
1.71E+12,128,128,-1,-1,-1,-1,-4.282477186,-23.10036318,-27.38284036,-18.67490067,-1,-1,-1,-1
1.71E+12,128,128,-1,-1,-1,-1,-4.283197323,-23.09949452,-27.38269185,-18.67525584,-1,-1,-1,-1
1.71E+12,128,128,-1,-1,-1,-1,-4.283909106,-23.09862844,-27.38253755,-18.67561695,-1,-1,-1,-1
1.71E+12,128,128,-1,-1,-1,-1,-4.284611445,-23.09776667,-27.38237811,-18.67598333,-1,-1,-1,-1
1.71E+12,128,128,-1,-1,-1,-1,-4.285303334,-23.09691099,-27.38221433,-18.67635431,-1,-1,-1,-1
1.71E+12,128,128,-1,-1,-1,-1,-4.285983781,-23.09606318,-27.38204696,-18.67672919,-1,-1,-1,-1
1.71E+12,128,128,-1,-1,-1,-1,-4.286651766,-23.09522498,-27.38187674,-18.67710725,-1,-1,-1,-1
1.71E+12,128,128,-1,-1,-1,-1,-4.287306206,-23.09439809,-27.3817043,-18.67748769,-1,-1,-1,-1
1.71E+12,128,128,-1,-1,-1,-1,-4.287945978,-23.09358416,-27.38153013,-18.67786973,-1,-1,-1,-1
1.71E+12,128,128,-1,-1,-1,-1,-4.288569972,-23.09278476,-27.38135473,-18.67825257,-1,-1,-1,-1
1.71E+12,128,128,-1,-1,-1,-1,-4.289177094,-23.09200146,-27.38117855,-18.67863535,-1,-1,-1,-1
1.71E+12,128,128,-1,-1,-1,-1,-4.289766276,-23.0912358,-27.38100207,-18.67901726,-1,-1,-1,-1
1.71E+12,128,128,-1,-1,-1,-1,-4.290336495,-23.09048935,-27.38082584,-18.67939744,-1,-1,-1,-1
1.71E+12,128,128,-1,-1,-1,-1,-4.290886731,-23.08976366,-27.38065039,-18.67977503,-1,-1,-1,-1
1.71E+12,128,128,-1,-1,-1,-1,-4.29141595,-23.08906024,-27.38047619,-18.68014914,-1,-1,-1,-1
1.71E+12,128,128,-1,-1,-1,-1,-4.291923075,-23.08838048,-27.38030355,-18.68051887,-1,-1,-1,-1
1.71E+12,128,128,-1,-1,-1,-1,-4.292406961,-23.08772567,-27.38013263,-18.68088331,-1,-1,-1,-1
1.71E+12,128,128,-1,-1,-1,-1,-4.292866385,-23.08709702,-27.37996341,-18.68124152,-1,-1,-1,-1
1.71E+12,128,128,-1,-1,-1,-1,-4.293300067,-23.08649568,-27.37979575,-18.68159256,-1,-1,-1,-1
1.71E+12,128,128,-1,-1,-1,-1,-4.293706754,-23.08592272,-27.37962948,-18.68193555,-1,-1,-1,-1
1.71E+12,128,128,-1,-1,-1,-1,-4.294085324,-23.08537922,-27.37946454,-18.6822696,-1,-1,-1,-1
1.71E+12,128,128,-1,-1,-1,-1,-4.294434869,-23.08486618,-27.37930105,-18.68259387,-1,-1,-1,-1
1.71E+12,128,128,-1,-1,-1,-1,-4.294754725,-23.08438448,-27.3791392,-18.68290753,-1,-1,-1,-1
1.71E+12,128,128,-1,-1,-1,-1,-4.295044322,-23.08393484,-27.37897916,-18.6832098,-1,-1,-1,-1
1.71E+12,128,128,-1,-1,-1,-1,-4.295302986,-23.08351779,-27.37882078,-18.68349992,-1,-1,-1,-1
1.71E+12,128,128,-1,-1,-1,-1,-4.295529875,-23.08313371,-27.37866358,-18.6837771,-1,-1,-1,-1
1.71E+12,128,128,-1,-1,-1,-1,-4.29572404,-23.08278285,-27.37850689,-18.68404059,-1,-1,-1,-1
1.71E+12,128,128,-1,-1,-1,-1,-4.295884503,-23.08246543,-27.37834994,-18.68428965,-1,-1,-1,-1
1.71E+12,128,128,-1,-1,-1,-1,-4.296010319,-23.08218166,-27.37819198,-18.68452361,-1,-1,-1,-1
1.71E+12,128,128,-1,-1,-1,-1,-4.296100613,-23.08193169,-27.3780323,-18.68474181,-1,-1,-1,-1
1.71E+12,128,128,-1,-1,-1,-1,-4.296154634,-23.08171564,-27.37787027,-18.6849437,-1,-1,-1,-1
1.71E+12,128,128,-1,-1,-1,-1,-4.296171737,-23.08153349,-27.37770522,-18.68512873,-1,-1,-1,-1
1.71E+12,128,128,-1,-1,-1,-1,-4.29615133,-23.08138503,-27.37753636,-18.68529636,-1,-1,-1,-1
1.71E+12,128,128,-1,-1,-1,-1,-4.296092869,-23.08126988,-27.37736275,-18.6854461,-1,-1,-1,-1
1.71E+12,128,128,-1,-1,-1,-1,-4.295995855,-23.08118751,-27.37718336,-18.68557747,-1,-1,-1,-1
1.71E+12,128,128,-1,-1,-1,-1,-4.295859801,-23.08113728,-27.37699708,-18.68569006,-1,-1,-1,-1
1.71E+12,128,128,-1,-1,-1,-1,-4.295684218,-23.08111855,-27.37680277,-18.68578352,-1,-1,-1,-1
1.71E+12,128,128,-1,-1,-1,-1,-4.295468645,-23.08113063,-27.37659928,-18.68585754,-1,-1,-1,-1
1.71E+12,128,128,-1,-1,-1,-1,-4.295212662,-23.08117277,-27.37638544,-18.6859119,-1,-1,-1,-1
1.71E+12,128,128,-1,-1,-1,-1,-4.294915894,-23.08124412,-27.37616001,-18.68594644,-1,-1,-1,-1
1.71E+12,128,128,-1,-1,-1,-1,-4.294577964,-23.08134371,-27.37592167,-18.68596102,-1,-1,-1,-1
1.71E+12,128,128,-1,-1,-1,-1,-4.294198475,-23.08147049,-27.37566896,-18.68595553,-1,-1,-1,-1
1.71E+12,128,128,-1,-1,-1,-1,-4.293777031,-23.08162324,-27.37540027,-18.6859299,-1,-1,-1,-1
1.71E+12,128,128,-1,-1,-1,-1,-4.293313241,-23.08180064,-27.37511388,-18.68588414,-1,-1,-1,-1
1.71E+12,128,128,-1,-1,-1,-1,-4.292806737,-23.08200133,-27.37480807,-18.6858183,-1,-1,-1,-1
1.71E+12,128,128,-1,-1,-1,-1,-4.292257201,-23.08222392,-27.37448112,-18.68573249,-1,-1,-1,-1
1.71E+12,128,128,-1,-1,-1,-1,-4.291664404,-23.08246698,-27.37413138,-18.68562684,-1,-1,-1,-1
1.71E+12,128,128,-1,-1,-1,-1,-4.291028232,-23.08272902,-27.37375725,-18.68550149,-1,-1,-1,-1
1.71E+12,128,128,-1,-1,-1,-1,-4.290348631,-23.08300849,-27.37335712,-18.6853567,-1,-1,-1,-1
1.71E+12,128,128,-1,-1,-1,-1,-4.289625554,-23.08330375,-27.3729293,-18.68519276,-1,-1,-1,-1
1.71E+12,128,128,-1,-1,-1,-1,-4.288858984,-23.08361305,-27.37247203,-18.68500999,-1,-1,-1,-1
1.71E+12,128,128,-1,-1,-1,-1,-4.288048942,-23.08393454,-27.37198348,-18.68480875,-1,-1,-1,-1
1.71E+12,128,128,-1,-1,-1,-1,-4.28719551,-23.08426634,-27.37146185,-18.68458943,-1,-1,-1,-1
1.71E+12,128,128,-1,-1,-1,-1,-4.286298853,-23.08460656,-27.37090541,-18.68435254,-1,-1,-1,-1
1.71E+12,128,128,-1,-1,-1,-1,-4.285359219,-23.08495327,-27.37031249,-18.68409869,-1,-1,-1,-1
1.71E+12,128,128,-1,-1,-1,-1,-4.284376936,-23.08530461,-27.36968155,-18.68382846,-1,-1,-1,-1
1.71E+12,128,128,-1,-1,-1,-1,-4.283352381,-23.08565868,-27.36901106,-18.68354251,-1,-1,-1,-1
1.71E+12,128,128,-1,-1,-1,-1,-4.282285952,-23.08601355,-27.36829951,-18.68324155,-1,-1,-1,-1
1.71E+12,128,128,-1,-1,-1,-1,-4.281178055,-23.08636726,-27.36754531,-18.68292626,-1,-1,-1,-1
1.71E+12,128,128,-1,-1,-1,-1,-4.280029147,-23.08671773,-27.36674688,-18.68259737,-1,-1,-1,-1
1.71E+12,128,128,-1,-1,-1,-1,-4.27883974,-23.0870629,-27.36590264,-18.68225567,-1,-1,-1,-1
1.71E+12,128,128,-1,-1,-1,-1,-4.277610396,-23.08740073,-27.36501113,-18.68190197,-1,-1,-1,-1
1.71E+12,128,128,-1,-1,-1,-1,-4.276341746,-23.08772925,-27.364071,-18.68153705,-1,-1,-1,-1
1.71E+12,128,128,-1,-1,-1,-1,-4.275034458,-23.08804658,-27.36308104,-18.68116176,-1,-1,-1,-1
1.71E+12,128,128,-1,-1,-1,-1,-4.273689217,-23.0883509,-27.36204011,-18.680777,-1,-1,-1,-1
1.71E+12,128,128,-1,-1,-1,-1,-4.272306743,-23.08864046,-27.3609472,-18.68038371,-1,-1,-1,-1
1.71E+12,128,128,-1,-1,-1,-1,-4.270887791,-23.08891352,-27.35980132,-18.67998279,-1,-1,-1,-1
1.71E+12,128,128,-1,-1,-1,-1,-4.269433118,-23.08916841,-27.35860153,-18.67957515,-1,-1,-1,-1
1.71E+12,128,128,-1,-1,-1,-1,-4.26794352,-23.08940344,-27.35734696,-18.67916173,-1,-1,-1,-1
1.71E+12,128,128,-1,-1,-1,-1,-4.266419827,-23.08961696,-27.35603678,-18.67874346,-1,-1,-1,-1
1.71E+12,128,128,-1,-1,-1,-1,-4.264862895,-23.08980736,-27.35467026,-18.67832128,-1,-1,-1,-1
1.71E+12,128,128,-1,-1,-1,-1,-4.263273652,-23.08997324,-27.35324689,-18.67789617,-1,-1,-1,-1
1.71E+12,128,128,-1,-1,-1,-1,-4.261653124,-23.09011332,-27.35176644,-18.67746912,-1,-1,-1,-1
1.71E+12,128,128,-1,-1,-1,-1,-4.260002384,-23.09022639,-27.35022877,-18.67704112,-1,-1,-1,-1
1.71E+12,128,128,-1,-1,-1,-1,-4.258322499,-23.09031125,-27.34863375,-18.67661313,-1,-1,-1,-1
1.71E+12,128,128,-1,-1,-1,-1,-4.256614486,-23.09036673,-27.34698122,-18.67618606,-1,-1,-1,-1
1.71E+12,128,128,-1,-1,-1,-1,-4.254879325,-23.09039167,-27.345271,-18.67576078,-1,-1,-1,-1
1.71E+12,128,128,-1,-1,-1,-1,-4.253117988,-23.09038497,-27.34350296,-18.67533815,-1,-1,-1,-1
1.71E+12,128,128,-1,-1,-1,-1,-4.251331513,-23.09034564,-27.34167716,-18.67491907,-1,-1,-1,-1
1.71E+12,128,128,-1,-1,-1,-1,-4.249521082,-23.09027285,-27.33979393,-18.67450445,-1,-1,-1,-1
1.71E+12,128,128,-1,-1,-1,-1,-4.247688056,-23.09016595,-27.33785401,-18.67409518,-1,-1,-1,-1
1.71E+12,128,128,-1,-1,-1,-1,-4.245834015,-23.09002446,-27.33585848,-18.67369211,-1,-1,-1,-1
1.71E+12,128,128,-1,-1,-1,-1,-4.243960682,-23.08984794,-27.33380862,-18.67329609,-1,-1,-1,-1
1.71E+12,128,128,-1,-1,-1,-1,-4.2420698,-23.08963606,-27.33170586,-18.67290792,-1,-1,-1,-1
1.71E+12,128,128,-1,-1,-1,-1,-4.240163039,-23.08938859,-27.32955163,-18.67252837,-1,-1,-1,-1
1.71E+12,128,128,-1,-1,-1,-1,-4.238241983,-23.08910535,-27.32734733,-18.67215812,-1,-1,-1,-1
1.71E+12,128,128,-1,-1,-1,-1,-4.23630813,-23.08878625,-27.32509438,-18.67179787,-1,-1,-1,-1
1.71E+12,128,128,-1,-1,-1,-1,-4.234362964,-23.08843131,-27.32279427,-18.67144832,-1,-1,-1,-1
1.71E+12,128,128,-1,-1,-1,-1,-4.232407996,-23.08804068,-27.32044868,-18.67111009,-1,-1,-1,-1
1.71E+12,128,128,-1,-1,-1,-1,-4.230444721,-23.08761473,-27.31805945,-18.67078381,-1,-1,-1,-1
1.71E+12,128,128,-1,-1,-1,-1,-4.228474652,-23.08715393,-27.31562859,-18.67047002,-1,-1,-1,-1
1.71E+12,128,128,-1,-1,-1,-1,-4.226499315,-23.08665883,-27.31315814,-18.67016926,-1,-1,-1,-1
1.71E+12,128,128,-1,-1,-1,-1,-4.224520253,-23.08613,-27.31065025,-18.66988204,-1,-1,-1,-1
1.71E+12,128,128,-1,-1,-1,-1,-4.22253905,-23.08556807,-27.30810712,-18.66960878,-1,-1,-1,-1
1.71E+12,128,128,-1,-1,-1,-1,-4.220557292,-23.08497373,-27.30553102,-18.66934992,-1,-1,-1,-1
1.71E+12,128,128,-1,-1,-1,-1,-4.218576578,-23.08434778,-27.30292436,-18.66910579,-1,-1,-1,-1
1.71E+12,128,128,-1,-1,-1,-1,-4.216598521,-23.08369118,-27.3002897,-18.66887667,-1,-1,-1,-1
1.71E+12,128,128,-1,-1,-1,-1,-4.214624723,-23.08300502,-27.29762975,-18.66866285,-1,-1,-1,-1
1.71E+12,128,128,-1,-1,-1,-1,-4.212656812,-23.08229053,-27.29494734,-18.66846461,-1,-1,-1,-1
1.71E+12,128,128,-1,-1,-1,-1,-4.210696466,-23.08154897,-27.29224543,-18.66828214,-1,-1,-1,-1
1.71E+12,128,128,-1,-1,-1,-1,-4.208745364,-23.08078161,-27.28952698,-18.66811557,-1,-1,-1,-1
1.71E+12,128,128,-1,-1,-1,-1,-4.206805153,-23.07998972,-27.28679488,-18.66796496,-1,-1,-1,-1
1.71E+12,128,128,-1,-1,-1,-1,-4.204877434,-23.07917452,-27.28405196,-18.66783036,-1,-1,-1,-1
1.71E+12,128,128,-1,-1,-1,-1,-4.2029638,-23.07833728,-27.28130108,-18.66771174,-1,-1,-1,-1
1.71E+12,128,128,-1,-1,-1,-1,-4.201065857,-23.07747934,-27.2785452,-18.66760909,-1,-1,-1,-1
1.71E+12,128,128,-1,-1,-1,-1,-4.199185209,-23.07660215,-27.27578736,-18.66752234,-1,-1,-1,-1
1.71E+12,128,128,-1,-1,-1,-1,-4.197323474,-23.07570724,-27.27303072,-18.66745145,-1,-1,-1,-1
1.71E+12,128,128,-1,-1,-1,-1,-4.195482326,-23.07479614,-27.27027847,-18.66739628,-1,-1,-1,-1
1.71E+12,128,128,-1,-1,-1,-1,-4.193663482,-23.07387037,-27.26753385,-18.66735669,-1,-1,-1,-1
1.71E+12,128,128,-1,-1,-1,-1,-4.191868686,-23.0729314,-27.26480009,-18.66733248,-1,-1,-1,-1
1.71E+12,128,128,-1,-1,-1,-1,-4.190099667,-23.07198069,-27.26208035,-18.6673234,-1,-1,-1,-1
1.71E+12,128,128,-1,-1,-1,-1,-4.188358067,-23.07101965,-27.25937772,-18.66732914,-1,-1,-1,-1
1.71E+12,128,128,-1,-1,-1,-1,-4.186645465,-23.0700498,-27.25669526,-18.66734937,-1,-1,-1,-1
1.71E+12,128,128,-1,-1,-1,-1,-4.184963478,-23.06907269,-27.25403617,-18.66738379,-1,-1,-1,-1
1.71E+12,128,128,-0.999262435,-1,-0.999262435,-1,-4.183313732,-23.06809,-27.25140373,-18.66743204,-0.999917488,-1,-0.999917488,-1
1.71E+12,128,128,-0.997042845,-0.999264389,-0.997042845,-1,-4.181697758,-23.06710339,-27.24880115,-18.66749377,-0.999586669,-0.999917271,-0.999586669,-1
1.71E+12,128,128,-0.993326228,-0.997050678,-0.993326228,-1,-4.180116997,-23.06611449,-27.24623149,-18.66756859,-0.99884007,-0.999585583,-0.99884007,-1
1.71E+12,128,128,-0.988091394,-0.993343907,-0.988091394,-1,-4.178572864,-23.06512481,-27.24369767,-18.66765614,-0.997507845,-0.998837022,-0.997507845,-1
1.71E+12,128,128,-0.981311013,-0.988122938,-0.981311013,-1,-4.177066791,-23.06413576,-27.24120255,-18.66775608,-0.995417095,-0.997501298,-0.995417095,-1
1.71E+12,128,128,-0.972951716,-0.981360519,-0.972951716,-1,-4.175600309,-23.06314866,-27.23874897,-18.66786799,-0.992391185,-0.995405055,-0.992391185,-1
1.71E+12,128,128,-0.962974223,-0.973023365,-0.962974223,-1,-4.174175048,-23.06216485,-27.2363399,-18.66799149,-0.988249086,-0.992371194,-0.988249086,-1
1.71E+12,128,128,-0.951333509,-0.963072301,-0.951333509,-0.999262435,-4.172792671,-23.06118574,-27.23397841,-18.66812627,-0.982804731,-0.988218212,-0.982804731,-0.999917488
1.71E+12,128,128,-0.937979015,-0.951462423,-0.937979015,-0.997042845,-4.17145484,-23.06021291,-27.23166775,-18.66827203,-0.975866401,-0.982759554,-0.975866401,-0.999586669
1.71E+12,128,128,-0.922854886,-0.938143304,-0.922854886,-0.993326228,-4.170163209,-23.05924803,-27.22941124,-18.66842845,-0.967236123,-0.975802994,-0.967236123,-0.99884007
1.71E+12,128,128,-0.90590025,-0.923059238,-0.90590025,-0.988091394,-4.16891944,-23.05829279,-27.22721223,-18.66859517,-0.956709118,-0.967150041,-0.956709118,-0.997507845
1.71E+12,128,128,-0.887049526,-0.906149513,-0.887049526,-0.981311013,-4.167725176,-23.05734883,-27.22507401,-18.66877181,-0.94407327,-0.956595379,-0.94407327,-0.995417095
1.71E+12,128,128,-0.866232771,-0.887348723,-0.866232771,-0.972951716,-4.166582077,-23.05641776,-27.22299984,-18.66895803,-0.929108637,-0.943926332,-0.929108637,-0.992391185
1.71E+12,128,128,-0.843376054,-0.86658711,-0.843376054,-0.962974223,-4.165491855,-23.05550113,-27.22099299,-18.66915349,-0.911587007,-0.928922382,-0.911587007,-0.988249086
1.71E+12,128,128,-0.818401858,-0.843790939,-0.818401858,-0.951333509,-4.164456249,-23.0546005,-27.21905675,-18.66935781,-0.891271496,-0.911354717,-0.891271496,-0.982804731
1.71E+12,128,128,-0.791229518,-0.818882897,-0.791229518,-0.937979015,-4.163476947,-23.05371751,-27.21719445,-18.66957064,-0.867916197,-0.890985831,-0.867916197,-0.975866401
1.71E+12,128,128,-0.761775677,-0.791782535,-0.761775677,-0.922854886,-4.162555506,-23.05285414,-27.21540964,-18.6697916,-0.841265876,-0.867569169,-0.841265876,-0.967236123
1.71E+12,128,128,-0.72995477,-0.762406715,-0.72995477,-0.90590025,-4.161693315,-23.05201281,-27.21370612,-18.6700203,-0.811055728,-0.840848829,-0.811055728,-0.956709118
1.71E+12,128,128,-0.695679532,-0.730670099,-0.695679532,-0.887049526,-4.160891585,-23.05119618,-27.21208777,-18.67025633,-0.777011185,-0.810559309,-0.777011185,-0.94407327
1.71E+12,128,128,-0.65886152,-0.696485653,-0.65886152,-0.866232771,-4.160151381,-23.05040692,-27.2105583,-18.67049923,-0.738847786,-0.77642532,-0.738847786,-0.929108637
1.71E+12,128,128,-0.619411664,-0.65976517,-0.619411664,-0.843376054,-4.159473623,-23.04964719,-27.20912081,-18.67074852,-0.696271103,-0.738161652,-0.696271103,-0.911587007
1.71E+12,128,128,-0.577240816,-0.620419812,-0.577240816,-0.818401858,-4.158859038,-23.04891857,-27.20777761,-18.67100375,-0.648976739,-0.695473107,-0.648976739,-0.891271496
1.71E+12,128,128,-0.532260334,-0.578360673,-0.532260334,-0.791229518,-4.15830804,-23.04822237,-27.20653041,-18.67126444,-0.596650377,-0.648054484,-0.596650377,-0.867916197
1.71E+12,128,128,-0.484382657,-0.533499341,-0.484382657,-0.761775677,-4.157820769,-23.04755977,-27.20538054,-18.67153005,-0.538967905,-0.595590643,-0.538967905,-0.841265876
1.71E+12,128,128,-0.433521897,-0.485748487,-0.433521897,-0.72995477,-4.157397227,-23.04693176,-27.20432898,-18.67180007,-0.475595605,-0.537756621,-0.475595605,-0.811055728
1.71E+12,128,128,-0.379594438,-0.435022454,-0.379594438,-0.695679532,-4.157037373,-23.04633913,-27.2033765,-18.67207398,-0.406190402,-0.474217821,-0.406190402,-0.777011185
1.71E+12,128,128,-0.322519531,-0.381237844,-0.322519531,-0.65886152,-4.156741144,-23.04578251,-27.20252366,-18.67235127,-0.33040019,-0.404630268,-0.33040019,-0.738847786
1.71E+12,128,128,-0.262219895,-0.324314124,-0.262219895,-0.619411664,-4.156508418,-23.04526235,-27.20177077,-18.67263141,-0.247864216,-0.32864093,-0.247864216,-0.696271103
1.71E+12,128,128,-0.198622313,-0.264174218,-0.198622313,-0.577240816,-4.156339004,-23.04477889,-27.20111789,-18.67291392,-0.158213536,-0.245888106,-0.158213536,-0.648976739
1.71E+12,128,128,-0.13165822,-0.200745101,-0.13165822,-0.532260334,-4.156232627,-23.04433219,-27.20056482,-18.67319833,-0.061071535,-0.156001883,-0.061071535,-0.596650377
1.71E+12,128,128,-0.061264284,-0.13395839,-0.061264284,-0.484382657,-4.156188923,-23.04392217,-27.20011109,-18.6734842,0.043945483,-0.058604659,0.043945483,-0.538967905
1.71E+12,128,128,0.01261702,-0.063750922,0.01261702,-0.433521897,-4.156207458,-23.04354864,-27.1997561,-18.67377118,0.157227655,0.046688274,0.157227655,-0.475595605
1.71E+12,128,128,0.090036852,0.009934676,0.090036852,-0.379594438,-4.156287788,-23.04321146,-27.19949925,-18.67405892,0.279170837,0.160268076,0.279170837,-0.406190402
1.71E+12,128,128,0.171039471,0.087149429,0.171039471,-0.322519531,-4.156429511,-23.04291063,-27.19934014,-18.6743471,0.410175839,0.282531643,0.410175839,-0.33040019
1.71E+12,128,128,0.255661711,0.167937479,0.255661711,-0.262219895,-4.156632306,-23.04264632,-27.19927863,-18.67463546,0.550647589,0.413880838,0.550647589,-0.247864216
1.71E+12,128,128,0.343932478,0.252335561,0.343932478,-0.198622313,-4.156895882,-23.04241872,-27.1993146,-18.6749238,0.700994252,0.554721655,0.700994252,-0.158213536
1.71E+12,128,128,0.435872273,0.340372505,0.435872273,-0.13165822,-4.157219895,-23.04222803,-27.19944793,-18.67521197,0.861626284,0.705463328,0.861626284,-0.061071535
1.71E+12,128,128,0.531492746,0.432068759,0.531492746,-0.061264284,-4.157603903,-23.04207441,-27.19967831,-18.67549986,1.032955445,0.866517393,1.032955445,0.043945483
1.71E+12,128,128,0.630796269,0.527435941,0.630796269,0.01261702,-4.158047375,-23.04195789,-27.20000526,-18.67578738,1.21539376,1.038296693,1.21539376,0.157227655
1.71E+12,128,128,0.733775545,0.626476416,0.733775545,0.090036852,-4.158549696,-23.0418784,-27.2004281,-18.67607438,1.409352438,1.221214333,1.409352438,0.279170837
1.71E+12,128,128,0.84041325,0.729182908,0.84041325,0.171039471,-4.159110142,-23.04183582,-27.20094596,-18.67636078,1.615240751,1.415682606,1.615240751,0.410175839
1.71E+12,128,128,0.950681708,0.835538138,0.950681708,0.255661711,-4.159727879,-23.04182999,-27.20155787,-18.67664656,1.833464873,1.622111855,1.833464873,0.550647589
1.71E+12,128,128,1.064542602,0.945514504,1.064542602,0.343932478,-4.160401985,-23.04186083,-27.20226281,-18.67693176,2.064426692,1.840909324,2.064426692,0.700994252
1.71E+12,128,128,1.181946722,1.059073789,1.181946722,0.435872273,-4.161131458,-23.04192823,-27.20305969,-18.67721639,2.308522593,2.072477957,2.308522593,0.861626284
1.71E+12,128,128,1.302833757,1.176166915,1.302833757,0.531492746,-4.161915203,-23.04203207,-27.20394727,-18.67750047,2.56614221,2.317215178,2.56614221,1.032955445
1.71E+12,128,128,1.427132123,1.296733729,1.427132123,0.630796269,-4.162752006,-23.04217216,-27.20492416,-18.67778403,2.837667172,2.575511647,2.837667172,1.21539376
1.71E+12,128,128,1.554758832,1.420702838,1.554758832,0.733775545,-4.163640582,-23.04234817,-27.20598876,-18.67806709,3.123469822,2.847749995,3.123469822,1.409352438
1.71E+12,128,128,1.685619411,1.547991474,1.685619411,0.84041325,-4.164579584,-23.04255968,-27.20713926,-18.67834966,3.423911937,3.134303545,3.423911937,1.615240751
1.71E+12,128,128,1.819607858,1.678505414,1.819607858,0.950681708,-4.16556759,-23.04280617,-27.20837376,-18.67863178,3.739343433,3.435535021,3.739343433,1.833464873
1.71E+12,128,128,1.956606642,1.812138936,1.956606642,1.064542602,-4.166603126,-23.0430871,-27.20969023,-18.67891348,4.070101079,3.75179526,4.070101079,2.064426692
1.71E+12,128,128,2.096486756,1.948774821,2.096486756,1.181946722,-4.167684639,-23.04340192,-27.21108656,-18.6791948,4.41650721,4.083421915,4.41650721,2.308522593
1.71E+12,128,128,2.239107803,2.088284403,2.239107803,1.302833757,-4.168810483,-23.04375007,-27.21256056,-18.67947581,4.778868457,4.43073817,4.778868457,2.56614221
1.71E+12,128,128,2.384318141,2.230527658,2.384318141,1.427132123,-4.169978961,-23.04413102,-27.21410998,-18.67975658,5.157474485,4.79405146,5.157474485,2.837667172
1.71E+12,128,128,2.53195506,2.375353345,2.53195506,1.554758832,-4.171188349,-23.04454417,-27.21573252,-18.68003717,5.552596759,5.173652212,5.552596759,3.123469822
1.71E+12,128,128,2.681845016,2.522599185,2.681845016,1.685619411,-4.172436892,-23.04498892,-27.21742582,-18.68031772,5.964487327,5.569812603,5.964487327,3.423911937
1.71E+12,128,128,2.833803897,2.672092094,2.833803897,1.819607858,-4.173722817,-23.0454646,-27.21918742,-18.6805983,6.39337764,5.982785344,6.39337764,3.739343433
1.71E+12,128,128,2.987637347,2.823648448,2.987637347,1.956606642,-4.175044336,-23.0459704,-27.22101474,-18.68087898,6.839477409,6.412802494,6.839477409,4.070101079
1.71E+12,128,128,3.143141123,2.977074406,3.143141123,2.096486756,-4.176399605,-23.04650544,-27.22290504,-18.68115984,7.302973494,6.860074315,7.302973494,4.41650721
1.71E+12,128,128,3.300101493,3.132166263,3.300101493,2.239107803,-4.177786712,-23.04706881,-27.22485553,-18.68144092,7.784028844,7.324788157,7.784028844,4.778868457
1.71E+12,128,128,3.458295687,3.288710858,3.458295687,2.384318141,-4.179203667,-23.04765967,-27.22686334,-18.68172228,8.282781489,7.8071074,8.282781489,5.157474485
1.71E+12,128,128,3.617492375,3.446486008,3.617492375,2.53195506,-4.180648389,-23.04827721,-27.2289256,-18.68200404,8.799343579,8.307170434,8.799343579,5.552596759
1.71E+12,128,128,3.777452186,3.605260996,3.777452186,2.681845016,-4.182118701,-23.0489206,-27.2310393,-18.68228631,9.333800484,8.825089703,9.333800484,5.964487327
1.71E+12,128,128,3.937928273,3.764797086,3.937928273,2.833803897,-4.183612364,-23.04958898,-27.23320134,-18.68256914,9.886209961,9.360950804,9.886209961,6.39337764
1.71E+12,128,128,4.098666899,3.924848084,4.098666899,2.987637347,-4.185127125,-23.05028137,-27.2354085,-18.6828526,10.45660138,9.914811643,10.45660138,6.839477409
1.71E+12,128,128,4.259408062,4.085160926,4.259408062,3.143141123,-4.18666072,-23.05099672,-27.23765744,-18.68313677,11.04497502,10.48670167,11.04497502,7.302973494
1.71E+12,128,128,4.419886156,4.245476298,4.419886156,3.300101493,-4.188210883,-23.05173391,-27.23994479,-18.68342172,11.65130147,11.07662117,11.65130147,7.784028844
1.71E+12,128,128,4.579830651,4.405529298,4.579830651,3.458295687,-4.189775347,-23.0524918,-27.24226714,-18.68370754,12.27552101,11.68454063,12.27552101,8.282781489
1.71E+12,128,128,4.738966805,4.565050113,4.738966805,3.617492375,-4.191351874,-23.0532693,-27.24462117,-18.68399431,12.91754322,12.3104002,12.91754322,8.799343579
1.71E+12,128,128,4.897016396,4.723764727,4.897016396,3.777452186,-4.192938294,-23.05406539,-27.24700368,-18.68428213,13.57724656,12.95410922,13.57724656,9.333800484
1.71E+12,128,128,5.05369848,4.881395657,5.05369848,3.937928273,-4.194532522,-23.0548791,-27.24941163,-18.6845711,14.25447803,13.61554582,14.25447803,9.886209961
1.71E+12,128,128,5.208730163,5.037662702,5.208730163,4.098666899,-4.196132566,-23.05570944,-27.251842,-18.68486136,14.949053,14.2945566,14.949053,10.45660138
1.71E+12,128,128,5.361827389,5.192283718,5.361827389,4.259408062,-4.197736547,-23.05655532,-27.25429186,-18.68515298,15.66075506,14.99095644,15.66075506,11.04497502
1.71E+12,128,128,5.512705744,5.344975402,5.512705744,4.419886156,-4.19934268,-23.0574156,-27.25675828,-18.68544604,16.38933599,15.70452838,16.38933599,11.65130147
1.71E+12,128,128,5.661081267,5.495454092,5.661081267,4.579830651,-4.200949243,-23.05828909,-27.25923833,-18.6857406,17.13451579,16.43502354,17.13451579,12.27552101
1.71E+12,128,128,5.806671267,5.64343658,5.806671267,4.738966805,-4.202554531,-23.05917458,-27.26172911,-18.68603673,17.89598285,17.18216118,17.89598285,12.91754322
1.71E+12,128,128,5.949195147,5.788640923,5.949195147,4.897016396,-4.204156792,-23.06007093,-27.26422772,-18.68633448,18.67339415,17.94562886,18.67339415,13.57724656
1.71E+12,128,128,6.08837523,5.930787269,6.08837523,5.05369848,-4.205754197,-23.06097705,-27.26673125,-18.68663391,19.46637563,18.72508268,19.46637563,14.25447803
1.71E+12,128,128,6.223937574,6.069598674,6.223937574,5.208730163,-4.207344824,-23.06189193,-27.26923675,-18.68693511,20.27452256,19.52014758,20.27452256,14.949053
1.71E+12,128,128,6.355612798,6.204801924,6.355612798,5.361827389,-4.208926713,-23.06281461,-27.27174132,-18.68723814,21.09740009,20.33041778,21.09740009,15.66075506
1.71E+12,128,128,6.483136882,6.336128351,6.483136882,5.512705744,-4.210497944,-23.06374414,-27.27424208,-18.68754304,21.93454383,21.15545728,21.93454383,16.38933599
1.71E+12,128,128,6.606251967,6.463314633,6.606251967,5.661081267,-4.212056701,-23.06467951,-27.27673621,-18.68784982,22.78546053,21.99480048,22.78546053,17.13451579
1.71E+12,128,128,6.724707141,6.586103595,6.724707141,5.806671267,-4.21360126,-23.06561967,-27.27922093,-18.6881585,23.6496289,22.84795282,23.6496289,17.89598285
1.71E+12,128,128,6.838259201,6.704244991,6.838259201,5.949195147,-4.21512997,-23.06656354,-27.28169351,-18.68846909,24.52650042,23.71439165,24.52650042,18.67339415
1.71E+12,128,128,6.946673403,6.81749626,6.946673403,6.08837523,-4.216641252,-23.06751003,-27.28415128,-18.68878159,25.41550031,24.593567,25.41550031,19.46637563
1.71E+12,128,128,7.049724184,6.925623282,7.049724184,6.223937574,-4.218133619,-23.06845811,-27.28659173,-18.689096,26.31602857,25.48490259,26.31602857,20.27452256
1.71E+12,128,128,7.14719586,7.02840109,7.14719586,6.355612798,-4.219605705,-23.06940683,-27.28901253,-18.6894123,27.22746105,26.38779683,27.22746105,21.09740009
1.71E+12,128,128,7.238883297,7.12561457,7.238883297,6.483136882,-4.221056256,-23.07035529,-27.29141155,-18.68973052,28.14915066,27.30162394,28.14915066,21.93454383
1.71E+12,128,128,7.32459255,7.217059134,7.32459255,6.606251967,-4.222484082,-23.07130264,-27.29378672,-18.69005067,29.08042863,28.22573514,29.08042863,22.78546053
1.71E+12,128,128,7.404141474,7.30254135,7.404141474,6.724707141,-4.223888,-23.07224801,-27.29613601,-18.69037274,30.02060579,29.15945989,30.02060579,23.6496289
1.71E+12,128,128,7.477360288,7.381879555,7.477360288,6.838259201,-4.225266799,-23.07319053,-27.29845733,-18.69069673,30.968974,30.10210721,30.968974,24.52650042
1.71E+12,128,128,7.544092118,7.454904418,7.544092118,6.946673403,-4.226619298,-23.07412925,-27.30074855,-18.69102261,31.92480754,31.05296709,31.92480754,25.41550031
1.71E+12,128,128,7.604193487,7.521459481,7.604193487,7.049724184,-4.227944416,-23.07506323,-27.30300765,-18.69135033,32.88736466,32.01131192,32.88736466,26.31602857
1.71E+12,128,128,7.657534767,7.581401646,7.657534767,7.14719586,-4.229241211,-23.07599159,-27.3052328,-18.69167984,33.8558891,32.976398,33.8558891,27.22746105
1.71E+12,128,128,7.704000596,7.634601629,7.704000596,7.238883297,-4.230508862,-23.07691351,-27.30742237,-18.69201113,34.82961172,33.94746708,34.82961172,28.14915066
1.71E+12,128,128,7.743490237,7.680944373,7.743490237,7.32459255,-4.231746652,-23.07782825,-27.3095749,-18.6923442,35.80775206,34.92374798,35.80775206,29.08042863
1.71E+12,128,128,7.775917905,7.72032941,7.775917905,7.404141474,-4.232953955,-23.07873512,-27.31168908,-18.69267903,36.78952011,35.90445823,36.78952011,30.02060579
1.71E+12,128,128,7.801213034,7.752671179,7.801213034,7.477360288,-4.234130244,-23.07963346,-27.31376371,-18.69301564,37.77411795,36.88880571,37.77411795,30.968974
1.71E+12,128,128,7.819320505,7.777899303,7.819320505,7.544092118,-4.235275077,-23.08052258,-27.31579765,-18.69335399,38.76074148,37.87599041,38.76074148,31.92480754
1.71E+12,128,128,7.830200821,7.795958809,7.830200821,7.604193487,-4.236388061,-23.08140174,-27.3177898,-18.69369408,39.7485822,38.86520613,39.7485822,32.88736466
1.71E+12,128,128,7.833830235,7.806810304,7.833830235,7.657534767,-4.237468864,-23.08227019,-27.31973905,-18.69403585,40.73682894,39.85564223,40.73682894,33.8558891
1.71E+12,128,128,7.830200821,7.810430104,7.830200821,7.704000596,-4.238517217,-23.08312715,-27.32164436,-18.69437928,41.72466966,40.84648543,41.72466966,34.82961172
1.71E+12,128,128,7.819320505,7.806810304,7.819320505,7.743490237,-4.239532919,-23.08397189,-27.3235048,-18.69472436,42.71129319,41.83692153,42.71129319,35.80775206
1.71E+12,128,128,7.801213034,7.795958809,7.801213034,7.775917905,-4.240515859,-23.0848038,-27.32531966,-18.69507106,43.69589103,42.82613725,43.69589103,36.78952011
1.71E+12,128,128,7.775917905,7.777899303,7.775917905,7.801213034,-4.241466046,-23.08562235,-27.3270884,-18.69541941,44.67765908,43.81332195,44.67765908,37.77411795
1.71E+12,128,128,7.743490237,7.752671179,7.743490237,7.819320505,-4.242383634,-23.08642699,-27.32881062,-18.69576941,45.65579942,44.79766943,45.65579942,38.76074148
1.71E+12,128,128,7.704000596,7.72032941,7.704000596,7.830200821,-4.243268881,-23.08721716,-27.33048604,-18.69612108,46.62952204,45.77837968,46.62952204,39.7485822
1.71E+12,128,128,7.657534767,7.680944373,7.657534767,7.833830235,-4.244122102,-23.08799224,-27.33211434,-18.69647437,47.59804648,46.75466058,47.59804648,40.73682894
1.71E+12,128,128,7.604193487,7.634601629,7.604193487,7.830200821,-4.244943565,-23.08875157,-27.33369513,-18.69682928,48.5606036,47.72572966,48.5606036,41.72466966
1.71E+12,128,128,7.544092118,7.581401646,7.544092118,7.819320505,-4.24573346,-23.08949447,-27.33522793,-18.69718582,49.51643714,48.69081574,49.51643714,42.71129319
1.71E+12,128,128,7.477360288,7.521459481,7.477360288,7.801213034,-4.246491942,-23.09022035,-27.33671229,-18.69754396,50.46480535,49.64916057,50.46480535,43.69589103
1.71E+12,128,128,7.404141474,7.454904418,7.404141474,7.775917905,-4.2472192,-23.09092874,-27.33814794,-18.69790368,51.40498251,50.60002045,51.40498251,44.67765908
1.71E+12,128,128,7.32459255,7.381879555,7.32459255,7.743490237,-4.247915553,-23.09161925,-27.3395348,-18.69826504,52.33626048,51.54266777,52.33626048,45.65579942
1.71E+12,128,128,7.238883297,7.30254135,7.238883297,7.704000596,-4.248581435,-23.09229155,-27.34087299,-18.69862811,53.25795009,52.47639252,53.25795009,46.62952204
1.71E+12,128,128,7.14719586,7.217059134,7.14719586,7.657534767,-4.249217332,-23.09294531,-27.34216264,-18.69899293,54.16938257,53.40050372,54.16938257,47.59804648
1.71E+12,128,128,7.049724184,7.12561457,7.049724184,7.604193487,-4.249823713,-23.09358017,-27.34340388,-18.69935956,55.06991083,54.31433083,55.06991083,48.5606036
1.71E+12,128,128,6.946673403,7.02840109,6.946673403,7.544092118,-4.250400999,-23.09419576,-27.34459676,-18.69972804,55.95891072,55.21722507,55.95891072,49.51643714
1.71E+12,128,128,6.838259201,6.925623282,6.838259201,7.477360288,-4.250949534,-23.09479168,-27.34574121,-18.70009837,56.83578224,56.10856066,56.83578224,50.46480535
1.71E+12,128,128,6.724707141,6.81749626,6.724707141,7.404141474,-4.251469589,-23.09536756,-27.34683715,-18.70047056,57.69995061,56.98773601,57.69995061,51.40498251
1.71E+12,128,128,6.606251967,6.704244991,6.606251967,7.32459255,-4.251961443,-23.09592312,-27.34788456,-18.70084461,58.55086731,57.85417484,58.55086731,52.33626048
1.71E+12,128,128,6.483136882,6.586103595,6.483136882,7.238883297,-4.252425438,-23.09645815,-27.34888359,-18.70122062,59.38801105,58.70732718,59.38801105,53.25795009
1.71E+12,128,128,6.355612798,6.463314633,6.355612798,7.14719586,-4.252861989,-23.09697255,-27.34983454,-18.70159867,60.21088858,59.54667038,60.21088858,54.16938257
1.71E+12,128,128,6.223937574,6.336128351,6.223937574,7.049724184,-4.253271593,-23.0974662,-27.35073779,-18.70197885,61.01903551,60.37170988,61.01903551,55.06991083
1.71E+12,128,128,6.08837523,6.204801924,6.08837523,6.946673403,-4.253654784,-23.09793899,-27.35159377,-18.70236123,61.81201699,61.18198008,61.81201699,55.95891072
1.71E+12,128,128,5.949195147,6.069598674,5.949195147,6.838259201,-4.254012096,-23.09839078,-27.35240287,-18.70274593,62.58942829,61.97704498,62.58942829,56.83578224
1.71E+12,128,128,5.806671267,5.930787269,5.806671267,6.724707141,-4.254344046,-23.09882138,-27.35316542,-18.70313299,63.35089535,62.7564988,63.35089535,57.69995061
1.71E+12,128,128,5.661081267,5.788640923,5.661081267,6.606251967,-4.254651107,-23.0992306,-27.35388171,-18.70352248,64.09607515,63.51996648,64.09607515,58.55086731
1.71E+12,128,128,5.512705744,5.64343658,5.512705744,6.483136882,-4.254933772,-23.09961825,-27.35455203,-18.70391446,64.82465608,64.26710412,64.82465608,59.38801105
1.71E+12,128,128,5.361827389,5.495454092,5.361827389,6.355612798,-4.255192574,-23.09998419,-27.35517677,-18.70430901,65.53635815,64.99759927,65.53635815,60.21088858
1.71E+12,128,128,5.208730163,5.344975402,5.208730163,6.223937574,-4.255428044,-23.10032835,-27.35575639,-18.70470621,66.23093312,65.71117122,66.23093312,61.01903551
1.71E+12,128,128,5.05369848,5.192283718,5.05369848,6.08837523,-4.255640743,-23.10065072,-27.35629147,-18.70510615,66.90816458,66.40757106,66.90816458,61.81201699
1.71E+12,128,128,4.897016396,5.037662702,4.897016396,5.949195147,-4.255831297,-23.10095128,-27.35678258,-18.70550897,67.56786792,67.08658184,67.56786792,62.58942829
1.71E+12,128,128,4.738966805,4.881395657,4.738966805,5.806671267,-4.256000393,-23.10122993,-27.35723032,-18.70591484,68.20989013,67.74801844,68.20989013,63.35089535
1.71E+12,128,128,4.579830651,4.723764727,4.579830651,5.661081267,-4.256148817,-23.10148651,-27.35763532,-18.7063239,68.83410967,68.39172746,68.83410967,64.09607515
1.71E+12,128,128,4.419886156,4.565050113,4.419886156,5.512705744,-4.256277432,-23.10172081,-27.35799824,-18.70673629,69.44043612,69.01758703,69.44043612,64.82465608
1.71E+12,128,128,4.259408062,4.405529298,4.259408062,5.361827389,-4.256387103,-23.10193264,-27.35831974,-18.70715217,70.02880976,69.62550649,70.02880976,65.53635815
1.71E+12,128,128,4.098666899,4.245476298,4.098666899,5.208730163,-4.256478642,-23.10212186,-27.3586005,-18.70757173,70.59920118,70.21542599,70.59920118,66.23093312
1.71E+12,128,128,3.937928273,4.085160926,3.937928273,5.05369848,-4.256552764,-23.1022885,-27.35884126,-18.70799514,71.15161066,70.78731602,71.15161066,66.90816458
1.71E+12,128,128,3.777452186,3.924848084,3.777452186,4.897016396,-4.256610088,-23.10243275,-27.35904284,-18.70842263,71.68606756,71.34117686,71.68606756,67.56786792
1.71E+12,128,128,3.617492375,3.764797086,3.617492375,4.738966805,-4.256651168,-23.10255493,-27.35920609,-18.70885438,72.20262965,71.87703796,72.20262965,68.20989013
1.71E+12,128,128,3.458295687,3.605260996,3.458295687,4.579830651,-4.256676553,-23.10265534,-27.35933189,-18.70929057,72.7013823,72.39495723,72.7013823,68.83410967
1.71E+12,128,128,3.300101493,3.446486008,3.300101493,4.419886156,-4.256686781,-23.10273428,-27.35942107,-18.70973135,73.18243765,72.89502026,73.18243765,69.44043612
1.71E+12,128,128,3.143141123,3.288710858,3.143141123,4.259408062,-4.256682359,-23.10279203,-27.35947439,-18.7101769,73.64593373,73.3773395,73.64593373,70.02880976
1.71E+12,128,128,2.987637347,3.132166263,2.987637347,4.098666899,-4.256663784,-23.10282884,-27.35949262,-18.71062739,74.0920335,73.84205334,74.0920335,70.59920118
1.71E+12,128,128,2.833803897,2.977074406,2.833803897,3.937928273,-4.256631574,-23.10284503,-27.3594766,-18.71108296,74.52092381,74.28932517,74.52092381,71.15161066
1.71E+12,128,128,2.681845016,2.823648448,2.681845016,3.777452186,-4.256586266,-23.10284102,-27.35942728,-18.71154376,74.93281438,74.71934232,74.93281438,71.68606756
1.71E+12,128,128,2.53195506,2.672092094,2.53195506,3.617492375,-4.256528396,-23.10281735,-27.35934575,-18.71200997,75.32793666,75.13231506,75.32793666,72.20262965
1.71E+12,128,128,2.384318141,2.522599185,2.384318141,3.458295687,-4.256458518,-23.10277459,-27.35923311,-18.71248178,75.70654268,75.52847545,75.70654268,72.7013823
1.71E+12,128,128,2.239107803,2.375353345,2.239107803,3.300101493,-4.256377201,-23.10271331,-27.35909051,-18.71295934,76.06890393,75.9080762,76.06890393,73.18243765
1.71E+12,128,128,2.096486756,2.230527658,2.096486756,3.143141123,-4.256285005,-23.10263406,-27.35891907,-18.71344284,76.41531006,76.27138949,76.41531006,73.64593373
1.71E+12,128,128,1.956606642,2.088284403,1.956606642,2.987637347,-4.256182481,-23.10253737,-27.35871985,-18.71393247,76.74606771,76.61870574,76.74606771,74.0920335
1.71E+12,128,128,1.819607858,1.948774821,1.819607858,2.833803897,-4.256070138,-23.10242374,-27.35849388,-18.7144284,77.0614992,76.9503324,77.0614992,74.52092381
1.71E+12,128,128,1.685619411,1.812138936,1.685619411,2.681845016,-4.25594845,-23.10229375,-27.3582422,-18.71493075,77.36194132,77.26659264,77.36194132,74.93281438
1.71E+12,128,128,1.554758832,1.678505414,1.554758832,2.53195506,-4.255817896,-23.10214801,-27.35796591,-18.71543973,77.64774397,77.56782412,77.64774397,75.32793666
1.71E+12,128,128,1.427132123,1.547991474,1.427132123,2.384318141,-4.255678996,-23.10198721,-27.35766621,-18.71595549,77.91926893,77.85437766,77.91926893,75.70654268
1.71E+12,128,128,1.302833757,1.420702838,1.302833757,2.239107803,-4.255532304,-23.10181211,-27.35734441,-18.7164782,78.17688855,78.12661601,78.17688855,76.06890393
1.71E+12,128,128,1.181946722,1.296733729,1.181946722,2.096486756,-4.255378392,-23.10162351,-27.3570019,-18.71700803,78.42098445,78.38491248,78.42098445,76.41531006
1.71E+12,128,128,1.064542602,1.176166915,1.064542602,1.956606642,-4.255217833,-23.1014222,-27.35664003,-18.71754513,78.65194627,78.6296497,78.65194627,76.74606771
1.71E+12,128,128,0.950681708,1.059073789,0.950681708,1.819607858,-4.255051155,-23.10120893,-27.35626009,-18.71808966,78.87017039,78.86121834,78.87017039,77.0614992
1.71E+12,128,128,0.84041325,0.945514504,0.84041325,1.685619411,-4.254878848,-23.10098444,-27.35586329,-18.71864174,79.0760587,79.0800158,79.0760587,77.36194132
1.71E+12,128,128,0.733775545,0.835538138,0.733775545,1.554758832,-4.254701361,-23.10074946,-27.35545082,-18.71920145,79.27001738,79.28644505,79.27001738,77.64774397
1.71E+12,128,128,0.630796269,0.729182908,0.630796269,1.427132123,-4.254519136,-23.10050475,-27.35502389,-18.71976887,79.4524557,79.48091333,79.4524557,77.91926893
1.71E+12,128,128,0.531492746,0.626476416,0.531492746,1.302833757,-4.254332646,-23.10025118,-27.35458382,-18.72034409,79.62378486,79.66383097,79.62378486,78.17688855
1.71E+12,128,128,0.435872273,0.527435941,0.435872273,1.181946722,-4.254142401,-23.09998969,-27.35413209,-18.72092717,79.78441689,79.83561027,79.78441689,78.42098445
1.71E+12,128,128,0.343932478,0.432068759,0.343932478,1.064542602,-4.253948987,-23.09972133,-27.35367032,-18.72151827,79.93476355,79.99666433,79.93476355,78.65194627
1.71E+12,128,128,0.255661711,0.340372505,0.255661711,0.950681708,-4.253753044,-23.09944716,-27.3532002,-18.72211749,80.0752353,80.147406,80.0752353,78.87017039
1.71E+12,128,128,0.171039471,0.252335561,0.171039471,0.84041325,-4.253555169,-23.09916824,-27.35272341,-18.72272489,80.2062403,80.28824682,80.2062403,79.0760587
1.71E+12,128,128,0.090036852,0.167937479,0.090036852,0.733775545,-4.253355837,-23.09888563,-27.35224147,-18.72334052,80.32818349,80.41959602,80.32818349,79.27001738
1.71E+12,128,128,0.01261702,0.087149429,0.01261702,0.630796269,-4.253155384,-23.09860034,-27.35175572,-18.72396443,80.44146566,80.54185958,80.44146566,79.4524557
1.71E+12,128,128,-0.061264284,0.009934676,-0.061264284,0.531492746,-4.252954056,-23.09831338,-27.35126743,-18.72459666,80.54648268,80.65543939,80.54648268,79.62378486
1.71E+12,128,128,-0.13165822,-0.063750922,-0.13165822,0.435872273,-4.252752076,-23.09802581,-27.35077788,-18.72523715,80.64362468,80.76073232,80.64362468,79.78441689
1.71E+12,128,128,-0.198622313,-0.13395839,-0.198622313,0.343932478,-4.252549719,-23.09773874,-27.35028846,-18.72588592,80.73327536,80.85812954,80.73327536,79.93476355
1.71E+12,128,128,-0.262219895,-0.200745101,-0.262219895,0.255661711,-4.252347323,-23.09745337,-27.34980069,-18.72654295,80.81581133,80.94801577,80.81581133,80.0752353
1.71E+12,128,128,-0.322519531,-0.264174218,-0.322519531,0.171039471,-4.252145262,-23.09717093,-27.34931619,-18.72720817,80.89160154,81.03076859,80.89160154,80.2062403
1.71E+12,128,128,-0.379594438,-0.324314124,-0.379594438,0.090036852,-4.251943918,-23.09689273,-27.34883665,-18.72788145,80.96100675,81.10675793,80.96100675,80.32818349
1.71E+12,128,128,-0.433521897,-0.381237844,-0.433521897,0.01261702,-4.251743628,-23.09662002,-27.34836365,-18.7285627,81.02437905,81.17634548,81.02437905,80.44146566
1.71E+12,128,128,-0.484382657,-0.435022454,-0.484382657,-0.061264284,-4.251544708,-23.09635394,-27.34789864,-18.72925178,81.08206152,81.23988428,81.08206152,80.54648268
1.71E+12,128,128,-0.532260334,-0.485748487,-0.532260334,-0.13165822,-4.251347493,-23.09609542,-27.34744292,-18.72994852,81.13438788,81.2977183,81.13438788,80.64362468
1.71E+12,128,128,-0.577240816,-0.533499341,-0.577240816,-0.198622313,-4.251152318,-23.09584532,-27.34699764,-18.73065269,81.18168224,81.35018214,81.18168224,80.73327536
1.71E+12,128,128,-0.619411664,-0.578360673,-0.619411664,-0.262219895,-4.250959465,-23.09560444,-27.3465639,-18.73136403,81.22425893,81.39760077,81.22425893,80.81581133
1.71E+12,128,128,-0.65886152,-0.620419812,-0.65886152,-0.322519531,-4.250769134,-23.09537358,-27.34614271,-18.73208227,81.26242233,81.44028931,81.26242233,80.89160154
1.71E+12,128,128,-0.695679532,-0.65976517,-0.695679532,-0.379594438,-4.250581434,-23.09515347,-27.34573491,-18.73280719,81.29646687,81.47855298,81.29646687,80.96100675
1.71E+12,128,128,-0.72995477,-0.696485653,-0.72995477,-0.433521897,-4.250396367,-23.09494471,-27.34534108,-18.73353858,81.32667702,81.51268697,81.32667702,81.02437905
1.71E+12,128,128,-0.761775677,-0.730670099,-0.761775677,-0.484382657,-4.25021386,-23.09474774,-27.3449616,-18.73427628,81.35332734,81.54297649,81.35332734,81.08206152
1.71E+12,128,128,-0.791229518,-0.762406715,-0.791229518,-0.532260334,-4.250033834,-23.09456274,-27.34459658,-18.73502012,81.37668264,81.56969683,81.37668264,81.13438788
1.71E+12,128,128,-0.818401858,-0.791782535,-0.818401858,-0.577240816,-4.249856238,-23.09438949,-27.34424573,-18.73576989,81.39699815,81.59311349,81.39699815,81.18168224
1.71E+12,128,128,-0.843376054,-0.818882897,-0.843376054,-0.619411664,-4.249681117,-23.09422734,-27.34390846,-18.73652545,81.41451978,81.61348238,81.41451978,81.22425893
1.71E+12,128,128,-0.866232771,-0.843790939,-0.866232771,-0.65886152,-4.249508648,-23.0940754,-27.34358405,-18.73728667,81.42948441,81.63105004,81.42948441,81.26242233
1.71E+12,128,128,-0.887049526,-0.86658711,-0.887049526,-0.695679532,-4.249339125,-23.09393287,-27.34327199,-18.73805343,81.44212026,81.64605399,81.44212026,81.29646687
1.71E+12,128,128,-0.90590025,-0.887348723,-0.90590025,-0.72995477,-4.249172982,-23.0937994,-27.34297239,-18.73882563,81.45264726,81.65872304,81.45264726,81.32667702
1.71E+12,128,128,-0.922854886,-0.906149513,-0.922854886,-0.761775677,-4.249010904,-23.09367503,-27.34268594,-18.73960316,81.46127754,81.6692777,81.46127754,81.35332734
1.71E+12,128,128,-0.937979015,-0.923059238,-0.937979015,-0.791229518,-4.24885393,-23.09355975,-27.34241368,-18.74038592,81.46821587,81.67793065,81.46821587,81.37668264
1.71E+12,128,128,-0.951333509,-0.938143304,-0.951333509,-0.818401858,-4.248703338,-23.09345347,-27.34215681,-18.74117378,81.47366023,81.68488721,81.47366023,81.39699815
1.71E+12,128,128,-0.962974223,-0.951462423,-0.962974223,-0.843376054,-4.248560356,-23.09335617,-27.34191653,-18.7419667,81.47780233,81.69034587,81.47780233,81.41451978
1.71E+12,128,128,-0.972951716,-0.963072301,-0.972951716,-0.866232771,-4.248426058,-23.09326794,-27.341694,-18.74276471,81.48082824,81.69449885,81.48082824,81.42948441
1.71E+12,128,128,-0.981311013,-0.973023365,-0.981311013,-0.887049526,-4.248301339,-23.09318894,-27.34149028,-18.74356783,81.48291899,81.69753271,81.48291899,81.44212026
1.71E+12,128,128,-0.988091394,-0.981360519,-0.988091394,-0.90590025,-4.248186906,-23.09311951,-27.34130642,-18.74437613,81.48425121,81.69962896,81.48425121,81.45264726
1.71E+12,128,128,-0.993326228,-0.988122938,-0.993326228,-0.922854886,-4.248083359,-23.09306018,-27.34114354,-18.74518965,81.48499781,81.70096468,81.48499781,81.46127754
1.71E+12,128,128,-0.997042845,-0.993343907,-0.997042845,-0.937979015,-4.247991261,-23.09301155,-27.34100281,-18.7460085,81.48532863,81.70171324,81.48532863,81.46821587
1.71E+12,128,128,-0.999262435,-0.997050678,-0.999262435,-0.951333509,-4.247911112,-23.0929742,-27.34088531,-18.74683278,81.48541114,81.70204493,81.48541114,81.47366023
1.71E+12,128,128,-1,-0.999264389,-1,-0.962974223,-4.247843305,-23.09294857,-27.34079188,-18.74766253,81.48541114,81.70212766,81.48541114,81.47780233
1.71E+12,128,128,-1,-1,-1,-0.972951716,-4.247788148,-23.09293488,-27.34072302,-18.74849781,81.48541114,81.70212766,81.48541114,81.48082824
1.71E+12,128,128,-1,-1,-1,-0.981311013,-4.247745979,-23.09293301,-27.34067899,-18.74933863,81.48541114,81.70212766,81.48541114,81.48291899
1.71E+12,128,128,-1,-1,-1,-0.988091394,-4.247717182,-23.09294267,-27.34065985,-18.75018496,81.48541114,81.70212766,81.48541114,81.48425121
1.71E+12,128,128,-1,-1,-1,-0.993326228,-4.247702125,-23.09296345,-27.34066558,-18.75103675,81.48541114,81.70212766,81.48541114,81.48499781
1.71E+12,128,128,-1,-1,-1,-0.997042845,-4.247701129,-23.09299488,-27.34069601,-18.75189396,81.48541114,81.70212766,81.48541114,81.48532863
1.71E+12,128,128,-1,-1,-1,-0.999262435,-4.247714429,-23.09303648,-27.34075091,-18.75275652,81.48541114,81.70212766,81.48541114,81.48541114
1.71E+12,128,128,-1,-1,-1,-1,-4.247742153,-23.09308768,-27.34082983,-18.75362438,81.48541114,81.70212766,81.48541114,81.48541114
1.71E+12,128,128,-1,-1,-1,-1,-4.247784344,-23.09314783,-27.34093217,-18.7544974,81.48541114,81.70212766,81.48541114,81.48541114
1.71E+12,128,128,-1,-1,-1,-1,-4.247840981,-23.09321614,-27.34105712,-18.75537546,81.48541114,81.70212766,81.48541114,81.48541114
1.71E+12,128,128,-1,-1,-1,-1,-4.247912019,-23.09329172,-27.34120374,-18.75625846,81.48541114,81.70212766,81.48541114,81.48541114
1.71E+12,128,128,-1,-1,-1,-1,-4.247997403,-23.09337359,-27.34137099,-18.75714636,81.48541114,81.70212766,81.48541114,81.48541114
1.71E+12,128,128,-1,-1,-1,-1,-4.24809709,-23.09346078,-27.34155787,-18.75803908,81.48541114,81.70212766,81.48541114,81.48541114
1.71E+12,128,128,-1,-1,-1,-1,-4.248211069,-23.09355237,-27.34176344,-18.75893657,81.48541114,81.70212766,81.48541114,81.48541114
1.71E+12,128,128,-1,-1,-1,-1,-4.24833933,-23.09364745,-27.34198678,-18.75983875,81.48541114,81.70212766,81.48541114,81.48541114
1.71E+12,128,128,-1,-1,-1,-1,-4.248481883,-23.09374516,-27.34222705,-18.76074558,81.48541114,81.70212766,81.48541114,81.48541114
1.71E+12,128,128,-1,-1,-1,-1,-4.248638751,-23.09384461,-27.34248336,-18.76165703,81.48541114,81.70212766,81.48541114,81.48541114
1.71E+12,128,128,-1,-1,-1,-1,-4.248809946,-23.09394489,-27.34275483,-18.76257308,81.48541114,81.70212766,81.48541114,81.48541114
1.71E+12,128,128,-1,-1,-1,-1,-4.248995468,-23.09404498,-27.34304045,-18.76349372,81.48541114,81.70212766,81.48541114,81.48541114
1.71E+12,128,128,-1,-1,-1,-1,-4.249195297,-23.09414382,-27.34333912,-18.76441895,81.48541114,81.70212766,81.48541114,81.48541114
1.71E+12,128,128,-1,-1,-1,-1,-4.249409395,-23.09424036,-27.34364975,-18.76534878,81.48541114,81.70212766,81.48541114,81.48541114
1.71E+12,128,128,-1,-1,-1,-1,-4.249637732,-23.09433352,-27.34397125,-18.76628322,81.48541114,81.70212766,81.48541114,81.48541114
1.71E+12,128,128,-1,-1,-1,-1,-4.249880288,-23.09442236,-27.34430265,-18.76722232,81.48541114,81.70212766,81.48541114,81.48541114
1.71E+12,128,128,-1,-1,-1,-1,-4.250137037,-23.09450599,-27.34464303,-18.76816613,81.48541114,81.70212766,81.48541114,81.48541114
1.71E+12,128,128,-1,-1,-1,-1,-4.250407948,-23.0945836,-27.34499155,-18.76911473,81.48541114,81.70212766,81.48541114,81.48541114
1.71E+12,128,128,-1,-1,-1,-1,-4.250692959,-23.09465438,-27.34534734,-18.77006816,81.48541114,81.70212766,81.48541114,81.48541114
1.71E+12,128,128,-1,-1,-1,-1,-4.250991968,-23.09471755,-27.34570952,-18.77102641,81.48541114,81.70212766,81.48541114,81.48541114
1.71E+12,128,128,-1,-1,-1,-1,-4.251304818,-23.09477231,-27.34607712,-18.7719895,81.48541114,81.70212766,81.48541114,81.48541114
1.71E+12,128,128,-1,-1,-1,-1,-4.251631311,-23.09481784,-27.34644915,-18.77295751,81.48541114,81.70212766,81.48541114,81.48541114
1.71E+12,128,128,-1,-1,-1,-1,-4.251971267,-23.09485337,-27.34682464,-18.77393045,81.48541114,81.70212766,81.48541114,81.48541114
1.71E+12,128,128,-1,-1,-1,-1,-4.252324565,-23.09487824,-27.34720281,-18.77490832,81.48541114,81.70212766,81.48541114,81.48541114
1.71E+12,128,128,-1,-1,-1,-1,-4.252691138,-23.09489186,-27.347583,-18.77589112,81.48541114,81.70212766,81.48541114,81.48541114
1.71E+12,128,128,-1,-1,-1,-1,-4.253070924,-23.09489378,-27.3479647,-18.77687885,81.48541114,81.70212766,81.48541114,81.48541114
