Shimmer_86BB_TimestampSync_Unix_CAL,Shimmer_86BB_GSR_Range_LPF_CAL,Shimmer_86BB_GSR_Skin_Conductance_LPF_CAL,Shimmer_86BB_GSR_Skin_Resistance_LPF_CAL,Shimmer_86BB_PPG_A13_LPF_CAL,Shimmer_86BB_PPG_IBI_LPF_CAL,Shimmer_86BB_PPGtoHR_LPF_CAL
1.71E+12,2,3.394139194,294.6255126,2934.798535,-1,-1
1.71E+12,2,3.394139194,294.6255126,2934.798535,-1,-1
1.71E+12,2,3.394139193,294.6255128,2934.798535,-1,-1
1.71E+12,2,3.394139187,294.6255133,2934.798531,-1,-1
1.71E+12,2,3.394139172,294.6255145,2934.798521,-1,-1
1.71E+12,2,3.394139144,294.625517,2934.798505,-1,-1
1.71E+12,2,3.394139099,294.6255208,2934.798483,-1,-1
1.71E+12,2,3.394139037,294.6255263,2934.798452,-1,-1
1.71E+12,2,3.394138954,294.6255335,2934.798411,-1,-1
1.71E+12,2,3.394138847,294.6255428,2934.798361,-1,-1
1.71E+12,2,3.39413871,294.6255547,2934.798297,-1,-1
1.71E+12,2,3.394138536,294.6255698,2934.798217,-1,-1
1.71E+12,2,3.394138317,294.6255888,2934.798122,-1,-1
1.71E+12,2,3.394138043,294.6256126,2934.798009,-1,-1
1.71E+12,2,3.394137704,294.6256421,2934.797876,-1,-1
1.71E+12,2,3.394137292,294.6256779,2934.797723,-1,-1
1.71E+12,2,3.394136795,294.625721,2934.79755,-1,-1
1.71E+12,2,3.394136202,294.6257725,2934.797354,-1,-1
1.71E+12,2,3.394135504,294.6258332,2934.79713,-1,-1
1.71E+12,2,3.394134686,294.6259042,2934.796881,-1,-1
1.71E+12,2,3.394133734,294.625987,2934.796604,-1,-1
1.71E+12,2,3.394132629,294.626083,2934.796298,-1,-1
1.71E+12,2,3.394131355,294.6261937,2934.795962,-1,-1
1.71E+12,2,3.394129896,294.6263205,2934.795596,-1,-1
1.71E+12,2,3.394128235,294.6264648,2934.795195,-1,-1
1.71E+12,2,3.394126353,294.6266283,2934.794755,-1,-1
1.71E+12,2,3.394124234,294.6268125,2934.794274,-1,-1
1.71E+12,2,3.394121857,294.6270191,2934.793752,-1,-1
1.71E+12,2,3.394119201,294.6272499,2934.793183,-1,-1
1.71E+12,2,3.394116241,294.6275072,2934.792564,-1,-1
1.71E+12,2,3.394112952,294.627793,2934.791896,-1,-1
1.71E+12,2,3.394109308,294.6281097,2934.791172,-1,-1
1.71E+12,2,3.394105284,294.6284595,2934.790388,-1,-1
1.71E+12,2,3.394100853,294.6288447,2934.789543,-1,-1
1.71E+12,2,3.394095986,294.6292677,2934.788637,-1,-1
1.71E+12,2,3.394090655,294.6297311,2934.787665,-1,-1
1.71E+12,2,3.394084829,294.6302376,2934.786624,-1,-1
1.71E+12,2,3.394078473,294.6307901,2934.785512,-1,-1
1.71E+12,2,3.394071553,294.6313917,2934.784326,-1,-1
1.71E+12,2,3.394064033,294.6320454,2934.783061,-1,-1
1.71E+12,2,3.394055878,294.6327544,2934.781717,-1,-1
1.71E+12,2,3.394047053,294.6335216,2934.780291,-1,-1
1.71E+12,2,3.394037525,294.6343501,2934.778779,-1,-1
1.71E+12,2,3.394027257,294.6352428,2934.777178,-1,-1
1.71E+12,2,3.394016211,294.6362032,2934.775487,-1,-1
1.71E+12,2,3.394004344,294.637235,2934.773704,-1,-1
1.71E+12,2,3.393991616,294.6383417,2934.771825,-1,-1
1.71E+12,2,3.393977985,294.639527,2934.769852,-1,-1
1.71E+12,2,3.393963411,294.6407943,2934.767782,-1,-1
1.71E+12,2,3.393947851,294.6421473,2934.765611,-1,-1
1.71E+12,2,3.393931266,294.6435896,2934.763336,-1,-1
1.71E+12,2,3.39391361,294.6451249,2934.760957,-1,-1
1.71E+12,2,3.393894843,294.6467571,2934.758473,-1,-1
1.71E+12,2,3.39387492,294.6484897,2934.755879,-1,-1
1.71E+12,2,3.393853798,294.6503266,2934.753176,-1,-1
1.71E+12,2,3.393831433,294.6522716,2934.750363,-1,-1
1.71E+12,2,3.393807783,294.6543285,2934.747434,-1,-1
1.71E+12,2,3.393782804,294.656501,2934.744387,-1,-1
1.71E+12,2,3.393756454,294.6587929,2934.741224,-1,-1
1.71E+12,2,3.393728688,294.6612078,2934.737941,-1,-1
1.71E+12,2,3.393699464,294.6637497,2934.734537,-1,-1
1.71E+12,2,3.39366874,294.6664221,2934.731015,-1,-1
1.71E+12,2,3.393636475,294.6692286,2934.727374,-1,-1
1.71E+12,2,3.393602628,294.6721728,2934.723615,-1,-1
1.71E+12,2,3.393567159,294.6752581,2934.719734,-1,-1
1.71E+12,2,3.393530032,294.6784877,2934.715735,-1,-1
1.71E+12,2,3.393491214,294.6818645,2934.711617,-1,-1
1.71E+12,2,3.393450676,294.685391,2934.707378,-1,-1
1.71E+12,2,3.393408386,294.68907,2934.70302,-1,-1
1.71E+12,2,3.393364308,294.6929045,2934.698543,-1,-1
1.71E+12,2,3.393318411,294.6968974,2934.693945,-1,-1
1.71E+12,2,3.393270663,294.7010514,2934.689227,-1,-1
1.71E+12,2,3.393221034,294.7053692,2934.684391,-1,-1
1.71E+12,2,3.393169497,294.709853,2934.679441,-1,-1
1.71E+12,2,3.393116028,294.714505,2934.674375,-1,-1
1.71E+12,2,3.393060607,294.719327,2934.669195,-1,-1
1.71E+12,2,3.393003213,294.7243207,2934.663905,-1,-1
1.71E+12,2,3.392943828,294.7294877,2934.658507,-1,-1
1.71E+12,2,3.392882438,294.7348293,2934.653002,-1,-1
1.71E+12,2,3.392819028,294.7403468,2934.647396,-1,-1
1.71E+12,2,3.39275359,294.7460408,2934.641692,-1,-1
1.71E+12,2,3.392686121,294.7519117,2934.635891,-1,-1
1.71E+12,2,3.39261662,294.7579595,2934.629994,-1,-1
1.71E+12,2,3.392545089,294.7641841,2934.624006,-1,-1
1.71E+12,2,3.392471535,294.7705849,2934.617928,-1,-1
1.71E+12,2,3.392395965,294.7771611,2934.611763,-1,-1
1.71E+12,2,3.392318389,294.7839121,2934.605516,-1,-1
1.71E+12,2,3.392238818,294.7908369,2934.599192,-1,-1
1.71E+12,2,3.392157269,294.797934,2934.592795,-1,-1
1.71E+12,2,3.392073763,294.8052014,2934.586328,-1,-1
1.71E+12,2,3.391988327,294.812637,2934.579797,-1,-1
1.71E+12,2,3.391900987,294.8202384,2934.573207,-1,-1
1.71E+12,2,3.391811771,294.8280032,2934.566561,-1,-1
1.71E+12,2,3.391720713,294.8359285,2934.559865,-1,-1
1.71E+12,2,3.391627848,294.8440113,2934.553125,-1,-1
1.71E+12,2,3.391533216,294.8522479,2934.546343,-1,-1
1.71E+12,2,3.391436861,294.8606347,2934.539526,-1,-1
1.71E+12,2,3.391338831,294.8691674,2934.532681,-1,-1
1.71E+12,2,3.391239181,294.8778414,2934.525812,-1,-1
1.71E+12,2,3.391137965,294.8866517,2934.518922,-1,-1
1.71E+12,2,3.391035243,294.8955933,2934.512019,-1,-1
1.71E+12,2,3.390931081,294.9046604,2934.505108,-1,-1
1.71E+12,2,3.390825543,294.9138475,2934.498191,-1,-1
1.71E+12,2,3.390718694,294.9231488,2934.491273,-1,-1
1.71E+12,2,3.390610606,294.9325581,2934.484361,-1,-1
1.71E+12,2,3.390501354,294.942069,2934.477457,-1,-1
1.71E+12,2,3.390391014,294.9516747,2934.470566,-1,-1
1.71E+12,2,3.390279663,294.9613686,2934.463695,-1,-1
1.71E+12,2,3.39016738,294.9711437,2934.45685,-1,-1
1.71E+12,2,3.39005425,294.9809928,2934.450034,-1,-1
1.71E+12,2,3.389940358,294.9909084,2934.44325,-1,-1
1.71E+12,2,3.389825792,295.0008828,2934.436506,-1,-1
1.71E+12,2,3.389710646,295.0109079,2934.429805,-1,-1
1.71E+12,2,3.389595014,295.0209755,2934.42315,-1,-1
1.71E+12,2,3.389478991,295.0310772,2934.416549,-1,-1
1.71E+12,2,3.389362675,295.0412046,2934.410006,-1,-1
1.71E+12,2,3.389246163,295.0513492,2934.403523,-1,-1
1.71E+12,2,3.389129556,295.0615023,2934.397102,-1,-1
1.71E+12,2,3.389012953,295.0716551,2934.390751,-1,-1
1.71E+12,2,3.388896456,295.0817989,2934.38447,-1,-1
1.71E+12,2,3.388780169,295.0919245,2934.378264,-1,-1
1.71E+12,2,3.388664197,295.1020229,2934.372138,-1,-1
1.71E+12,2,3.388548648,295.1120845,2934.366099,-1,-1
1.71E+12,2,3.38843363,295.1221001,2934.360148,-1,-1
1.71E+12,2,3.388319247,295.1320604,2934.354286,-1,-1
1.71E+12,2,3.388205605,295.1419564,2934.348519,-1,-1
1.71E+12,2,3.388092809,295.1517788,2934.342851,-1,-1
1.71E+12,2,3.387980965,295.1615184,2934.337284,-1,-1
1.71E+12,2,3.387870178,295.1711661,2934.331822,-1,-1
1.71E+12,2,3.387760554,295.1807127,2934.326468,-1,-1
1.71E+12,2,3.387652199,295.1901489,2934.321222,-1,-1
1.71E+12,2,3.387545214,295.1994658,2934.316087,-1,-1
1.71E+12,2,3.387439701,295.2086546,2934.311065,-1,-1
1.71E+12,2,3.387335761,295.2177065,2934.306158,-1,-1
1.71E+12,2,3.387233494,295.2266128,2934.301367,-1,-1
1.71E+12,2,3.387132997,295.2353651,2934.296694,-1,-1
1.71E+12,2,3.387034368,295.2439547,2934.29214,-1,-1
1.71E+12,2,3.386937703,295.2523733,2934.287706,-1,-1
1.71E+12,2,3.386843098,295.2606126,2934.283389,-1,-1
1.71E+12,2,3.386750647,295.2686644,2934.279191,-1,-1
1.71E+12,2,3.386660444,295.2765203,2934.275112,-1,-1
1.71E+12,2,3.386572577,295.2841729,2934.271153,-1,-1
1.71E+12,2,3.386487132,295.2916147,2934.267313,-1,-1
1.71E+12,2,3.38640419,295.2988383,2934.263595,-1,-1
1.71E+12,2,3.38632383,295.3058372,2934.259995,-1,-1
1.71E+12,2,3.386246127,295.3126047,2934.256512,-1,-1
1.71E+12,2,3.386171153,295.3191344,2934.253148,-1,-1
1.71E+12,2,3.38609898,295.3254203,2934.249901,-1,-1
1.71E+12,2,3.386029673,295.3314565,2934.246768,-1,-1
1.71E+12,2,3.385963297,295.3372375,2934.243748,-1,-1
1.71E+12,2,3.38589991,295.3427581,2934.240842,-1,-1
1.71E+12,2,3.385839572,295.348013,2934.238046,-1,-1
1.71E+12,2,3.385782342,295.3529973,2934.235358,-1,-1
1.71E+12,2,3.385728273,295.3577062,2934.232779,-1,-1
1.71E+12,2,3.385677415,295.3621354,2934.230308,-1,-1
1.71E+12,2,3.385629817,295.3662806,2934.227942,-1,-1
1.71E+12,2,3.38558552,295.3701382,2934.225678,-1,-1
1.71E+12,2,3.385544563,295.373705,2934.223516,-1,-1
1.71E+12,2,3.38550698,295.3769777,2934.221453,-1,-1
1.71E+12,2,3.385472805,295.3799536,2934.219487,-1,-1
1.71E+12,2,3.385442069,295.3826299,2934.217616,-1,-1
1.71E+12,2,3.385414803,295.3850039,2934.21584,-1,-1
1.71E+12,2,3.38539103,295.3870736,2934.214153,-1,-1
1.71E+12,2,3.385370772,295.3888371,2934.212554,-1,-1
1.71E+12,2,3.385354045,295.390293,2934.211041,-1,-1
1.71E+12,2,3.385340863,295.3914401,2934.209613,-1,-1
1.71E+12,2,3.385331235,295.3922776,2934.208265,-1,-1
1.71E+12,2,3.385325169,295.3928047,2934.206996,-1,-1
1.71E+12,2,3.385322672,295.393021,2934.205807,-1,-1
1.71E+12,2,3.385323747,295.392926,2934.204693,-1,-1
1.71E+12,2,3.385328395,295.3925199,2934.203649,-1,-1
1.71E+12,2,3.385336618,295.3918024,2934.202677,-1,-1
1.71E+12,2,3.385348409,295.390774,2934.201772,-1,-1
1.71E+12,2,3.385363757,295.3894357,2934.200933,-1,-1
1.71E+12,2,3.385382651,295.3877887,2934.200158,-1,-1
1.71E+12,2,3.385405075,295.3858342,2934.199446,-1,-1
1.71E+12,2,3.385431013,295.3835736,2934.198791,-1,-1
1.71E+12,2,3.385460447,295.3810085,2934.19819,-1,-1
1.71E+12,2,3.385493359,295.3781406,2934.197642,-1,-1
1.71E+12,2,3.385529726,295.3749717,2934.197143,-1,-1
1.71E+12,2,3.385569526,295.3715039,2934.196692,-1,-1
1.71E+12,2,3.385612732,295.3677395,2934.196286,-1,-1
1.71E+12,2,3.385659313,295.3636812,2934.195926,-1,-1
1.71E+12,2,3.385709236,295.3593319,2934.195607,-1,-1
1.71E+12,2,3.38576247,295.3546944,2934.195324,-1,-1
1.71E+12,2,3.385818979,295.3497717,2934.195079,-1,-1
1.71E+12,2,3.385878726,295.3445672,2934.194867,-1,-1
1.71E+12,2,3.385941676,295.3390839,2934.194688,-1,-1
1.71E+12,2,3.38600779,295.3333251,2934.194538,-1,-1
1.71E+12,2,3.386077027,295.3272945,2934.194419,-1,-1
1.71E+12,2,3.386149344,295.3209959,2934.194328,-1,-1
1.71E+12,2,3.386224693,295.3144334,2934.194261,-1,-1
1.71E+12,2,3.386303029,295.3076111,2934.194218,-1,-1
1.71E+12,2,3.386384304,295.300533,2934.194197,-1,-1
1.71E+12,2,3.386468474,295.2932031,2934.194195,-1,-1
1.71E+12,2,3.386555488,295.2856257,2934.194212,-1,-1
1.71E+12,2,3.386645299,295.2778052,2934.194246,-1,-1
1.71E+12,2,3.386737855,295.2697459,2934.194295,-1,-1
1.71E+12,2,3.386833103,295.2614525,2934.194354,-1,-1
1.71E+12,2,3.386930988,295.2529298,2934.194422,-1,-1
1.71E+12,2,3.387031455,295.2441827,2934.194497,-1,-1
1.71E+12,2,3.387134448,295.235216,2934.194575,-1,-1
1.71E+12,2,3.387239914,295.2260344,2934.194656,-1,-1
1.71E+12,2,3.3873478,295.2166425,2934.194743,-1,-1
1.71E+12,2,3.387458052,295.207045,2934.194836,-1,-1
1.71E+12,2,3.387570613,295.1972469,2934.19493,-1,-1
1.71E+12,2,3.387685427,295.1872532,2934.195026,-1,-1
1.71E+12,2,3.387802434,295.1770691,2934.195124,-1,-1
1.71E+12,2,3.387921573,295.1666998,2934.19522,-1,-1
1.71E+12,2,3.388042789,295.1561503,2934.195315,-1,-1
1.71E+12,2,3.388166025,295.1454255,2934.195411,-1,-1
1.71E+12,2,3.388291227,295.1345301,2934.195507,-1,-1
1.71E+12,2,3.388418346,295.1234684,2934.1956,-1,-1
1.71E+12,2,3.388547334,295.1122446,2934.195688,-1,-1
1.71E+12,2,3.388678136,295.1008635,2934.195772,-1,-1
1.71E+12,2,3.388810695,295.0893302,2934.195847,-1,-1
1.71E+12,2,3.388944956,295.0776495,2934.195913,-1,-1
1.71E+12,2,3.389080861,295.0658264,2934.195973,-1,-1
1.71E+12,2,3.389218349,295.0538661,2934.196025,-1,-1
1.71E+12,2,3.389357364,295.0417737,2934.196064,-1,-1
1.71E+12,2,3.38949785,295.029554,2934.196091,-1,-1
1.71E+12,2,3.389639752,295.0172119,2934.196105,-1,-1
1.71E+12,2,3.389783013,295.0047521,2934.196102,-1,-1
1.71E+12,2,3.389927577,294.9921798,2934.196082,-1,-1
1.71E+12,2,3.390073383,294.9795003,2934.196048,-1,-1
1.71E+12,2,3.390220375,294.9667184,2934.196002,-1,-1
1.71E+12,2,3.390368494,294.9538392,2934.195938,-1,-1
1.71E+12,2,3.390517683,294.9408677,2934.195858,-1,-1
1.71E+12,2,3.390667888,294.9278087,2934.195763,-1,-1
1.71E+12,2,3.390819053,294.9146669,2934.195651,-1,-1
1.71E+12,2,3.390971124,294.9014473,2934.195523,-1,-1
1.71E+12,2,3.391124044,294.8881546,2934.195383,-1,-1
1.71E+12,2,3.39127776,294.8747936,2934.195229,-1,-1
1.71E+12,2,3.391432214,294.8613692,2934.195054,-1,-1
1.71E+12,2,3.391587353,294.8478863,2934.194862,-1,-1
1.71E+12,2,3.391743123,294.8343492,2934.194651,-1,-1
1.71E+12,2,3.391899475,294.8207625,2934.19442,-1,-1
1.71E+12,2,3.392056356,294.8071307,2934.19417,-1,-1
1.71E+12,2,3.392213718,294.7934579,2934.193903,-1,-1
1.71E+12,2,3.392371514,294.7797484,2934.193617,-1,-1
1.71E+12,2,3.392529694,294.7660063,2934.193308,-1,-1
1.71E+12,2,3.392688209,294.7522362,2934.192977,-1,-1
1.71E+12,2,3.392847006,294.7384423,2934.192623,-1,-1
1.71E+12,2,3.393006037,294.7246291,2934.192248,-1,-1
1.71E+12,2,3.393165255,294.7108006,2934.191849,-1,-1
1.71E+12,2,3.393324616,294.6969606,2934.191426,-1,-1
1.71E+12,2,3.393484076,294.683113,2934.190978,-1,-1
1.71E+12,2,3.393643588,294.6692617,2934.1905,-1,-1
1.71E+12,2,3.393803112,294.6554103,2934.189995,-1,-1
1.71E+12,2,3.393962606,294.6415626,2934.189461,-1,-1
1.71E+12,2,3.394122032,294.6277217,2934.188898,-1,-1
1.71E+12,2,3.394281355,294.6138907,2934.188305,-1,-1
1.71E+12,2,3.394440538,294.6000729,2934.187686,-1,-1
1.71E+12,2,3.394599541,294.5862717,2934.187041,-1,-1
1.71E+12,2,3.394758332,294.5724899,2934.18637,-1,-1
1.71E+12,2,3.394916876,294.5587305,2934.185673,-1,-1
1.71E+12,2,3.395075142,294.5449963,2934.184953,-1,-1
1.71E+12,2,3.3952331,294.5312898,2934.18421,-1,-1
1.71E+12,2,3.395390722,294.5176134,2934.183445,-1,-1
1.71E+12,2,3.395547982,294.5039695,2934.182658,-1,-1
1.71E+12,2,3.395704855,294.4903602,2934.181851,-1,-1
1.71E+12,2,3.395861317,294.4767876,2934.181024,-1,-1
1.71E+12,2,3.396017345,294.4632537,2934.180175,-1,-1
1.71E+12,2,3.396172921,294.4497601,2934.179305,-1,-1
1.71E+12,2,3.396328027,294.4363082,2934.178415,-1,-1
1.71E+12,2,3.396482648,294.4228996,2934.177503,-1,-1
1.71E+12,2,3.396636765,294.4095357,2934.176571,-1,-1
1.71E+12,2,3.396790365,294.3962177,2934.175622,-1,-1
1.71E+12,2,3.396943437,294.3829466,2934.174659,-1,-1
1.71E+12,2,3.397095978,294.3697226,2934.173683,-1,-1
1.71E+12,2,3.397247987,294.3565459,2934.172698,-1,-1
1.71E+12,2,3.397399464,294.3434165,2934.171703,-1,-1
1.71E+12,2,3.397550407,294.3303345,2934.170702,-1,-1
1.71E+12,2,3.397700819,294.3172997,2934.169692,-1,-1
1.71E+12,2,3.397850704,294.3043116,2934.168678,-1,-1
1.71E+12,2,3.398000068,294.29137,2934.167661,-1,-1
1.71E+12,2,3.398148919,294.2784738,2934.166643,-1,-1
1.71E+12,2,3.398297269,294.2656224,2934.165624,-1,-1
1.71E+12,2,3.398445126,294.2528149,2934.164605,-1,-1
1.71E+12,2,3.398592506,294.2400499,2934.163587,-1,-1
1.71E+12,2,3.398739425,294.227326,2934.162571,-1,-1
1.71E+12,2,3.3988859,294.2146418,2934.16156,-1,-1
1.71E+12,2,3.399031949,294.2019958,2934.160562,-1,-1
1.71E+12,2,3.399177593,294.1893861,2934.159577,-1,-1
1.71E+12,2,3.399322855,294.1768107,2934.158608,-1,-1
1.71E+12,2,3.399467761,294.1642675,2934.157656,-1,-1
1.71E+12,2,3.399612346,294.1517534,2934.156722,-1,-1
1.71E+12,2,3.399756641,294.1392657,2934.155805,-1,-1
1.71E+12,2,3.399900676,294.1268018,2934.154906,-1,-1
1.71E+12,2,3.400044481,294.1143593,2934.154031,-1,-1
1.71E+12,2,3.400188088,294.1019353,2934.153179,-1,-1
1.71E+12,2,3.40033153,294.0895268,2934.152351,-1,-1
1.71E+12,2,3.400474846,294.0771308,2934.15155,-1,-1
1.71E+12,2,3.400618071,294.0647439,2934.150778,-1,-1
1.71E+12,2,3.400761244,294.052363,2934.150036,-1,-1
1.71E+12,2,3.400904402,294.0399848,2934.149326,-1,-1
1.71E+12,2,3.401047588,294.0276055,2934.148653,-1,-1
1.71E+12,2,3.401190843,294.0152218,2934.148017,-1,-1
1.71E+12,2,3.401334209,294.0028299,2934.147418,-1,-1
1.71E+12,2,3.401477732,293.990426,2934.146857,-1,-1
1.71E+12,2,3.401621455,293.9780062,2934.146336,-1,-1
1.71E+12,2,3.401765421,293.9655669,2934.145854,-1,-1
1.71E+12,2,3.401909674,293.9531043,2934.145415,-1,-1
1.71E+12,2,3.402054261,293.9406144,2934.145021,-1,-1
1.71E+12,2,3.402199225,293.9280935,2934.144672,-1,-1
1.71E+12,2,3.40234461,293.9155376,2934.14437,-1,-1
1.71E+12,2,3.402490466,293.9029427,2934.144114,-1,-1
1.71E+12,2,3.40263684,293.8903045,2934.143904,-1,-1
1.71E+12,2,3.402783786,293.8776185,2934.143739,-1,-1
1.71E+12,2,3.402931354,293.8648804,2934.143623,-1,-1
1.71E+12,2,3.403079589,293.8520862,2934.143558,-1,-1
1.71E+12,2,3.403228537,293.839232,2934.143544,-1,-1
1.71E+12,2,3.403378242,293.8263141,2934.14358,-1,-1
1.71E+12,2,3.403528746,293.8133288,2934.143667,-1,-1
1.71E+12,2,3.403680094,293.8002723,2934.143805,-1,-1
1.71E+12,2,3.403832327,293.7871409,2934.143994,-1,-1
1.71E+12,2,3.403985486,293.7739312,2934.144235,-1,-1
1.71E+12,2,3.404139613,293.7606396,2934.144531,-1,-1
1.71E+12,2,3.404294746,293.7472628,2934.14488,-1,-1
1.71E+12,2,3.404450922,293.7337976,2934.145282,-1,-1
1.71E+12,2,3.404608175,293.7202412,2934.145733,-1,-1
1.71E+12,2,3.404766536,293.7065908,2934.146234,-1,-1
1.71E+12,2,3.404926035,293.6928439,2934.146781,-1,-1
1.71E+12,2,3.405086699,293.6789981,2934.147374,-1,-1
1.71E+12,2,3.405248558,293.6650508,2934.148013,-1,-1
1.71E+12,2,3.405411638,293.6509999,2934.148697,-1,-1
1.71E+12,2,3.405575964,293.6368432,2934.149421,-1,-1
1.71E+12,2,3.405741557,293.6225788,2934.150182,-1,-1
1.71E+12,2,3.405908438,293.6082052,2934.150982,-1,-1
1.71E+12,2,3.40607662,293.5937209,2934.151817,-1,-1
1.71E+12,2,3.406246119,293.5791247,2934.152687,-1,-1
1.71E+12,2,3.406416949,293.5644155,2934.153593,-1,-1
1.71E+12,2,3.406589121,293.5495922,2934.154536,-1,-1
1.71E+12,2,3.406762645,293.534654,2934.155511,-1,-1
1.71E+12,2,3.406937529,293.5196003,2934.156516,-1,-1
1.71E+12,2,3.407113779,293.5044306,2934.157551,-1,-1
1.71E+12,2,3.407291394,293.4891448,2934.158613,-1,-1
1.71E+12,2,3.407470372,293.4737433,2934.1597,-1,-1
1.71E+12,2,3.407650705,293.4582266,2934.160815,-1,-1
1.71E+12,2,3.407832384,293.4425956,2934.161956,-1,-1
1.71E+12,2,3.408015397,293.4268515,2934.16312,-1,-1
1.71E+12,2,3.408199731,293.4109951,2934.164302,-1,-1
1.71E+12,2,3.408385372,293.3950279,2934.165503,-1,-1
1.71E+12,2,3.408572303,293.3789512,2934.16672,-1,-1
1.71E+12,2,3.408760507,293.3627664,2934.16795,-1,-1
1.71E+12,2,3.408949966,293.3464754,2934.169195,-1,-1
1.71E+12,2,3.409140655,293.3300801,2934.170452,-1,-1
1.71E+12,2,3.409332549,293.3135825,2934.171719,-1,-1
1.71E+12,2,3.409525622,293.2969852,2934.172993,-1,-1
1.71E+12,2,3.409719846,293.2802905,2934.174276,-1,-1
1.71E+12,2,3.409915195,293.2635004,2934.175564,-1,-1
1.71E+12,2,3.410111636,293.2466181,2934.176854,-1,-1
1.71E+12,2,3.410309131,293.2296467,2934.178147,-1,-1
1.71E+12,2,3.410507641,293.2125896,2934.179439,-1,-1
1.71E+12,2,3.410707125,293.1954503,2934.180729,-1,-1
1.71E+12,2,3.410907539,293.1782325,2934.182014,-1,-1
1.71E+12,2,3.411108841,293.16094,2934.183298,-1,-1
1.71E+12,2,3.411310987,293.1435765,2934.184577,-1,-1
1.71E+12,2,3.411513937,293.1261455,2934.185849,-1,-1
1.71E+12,2,3.411717646,293.1086508,2934.187111,-1,-1
1.71E+12,2,3.411922066,293.0910966,2934.18836,-1,-1
1.71E+12,2,3.412127142,293.0734875,2934.189592,-1,-1
1.71E+12,2,3.412332822,293.0558281,2934.190806,-1,-1
1.71E+12,2,3.412539054,293.0381229,2934.192005,-1,-1
1.71E+12,2,3.41274578,293.0203767,2934.193186,-1,-1
1.71E+12,2,3.412952946,293.0025943,2934.194347,-1,-1
1.71E+12,2,3.413160494,292.9847807,2934.195487,-1,-1
1.71E+12,2,3.413368371,292.9669404,2934.196606,-1,-1
1.71E+12,2,3.413576519,292.9490783,2934.197699,-1,-1
1.71E+12,2,3.413784882,292.9311994,2934.198767,-1,-1
1.71E+12,2,3.413993398,292.9133088,2934.199812,-1,-1
1.71E+12,2,3.414202004,292.8954121,2934.200829,-1,-1
1.71E+12,2,3.414410639,292.8775145,2934.201815,-1,-1
1.71E+12,2,3.414619245,292.8596208,2934.202769,-1,-1
1.71E+12,2,3.414827762,292.8417363,2934.203688,-1,-1
1.71E+12,2,3.415036132,292.823866,2934.20457,-1,-1
1.71E+12,2,3.415244298,292.8060148,2934.205415,-1,-1
1.71E+12,2,3.4154522,292.7881877,2934.206227,-1,-1
1.71E+12,2,3.415659784,292.7703895,2934.207003,-1,-1
1.71E+12,2,3.415866989,292.7526252,2934.207743,-1,-1
1.71E+12,2,3.416073756,292.7349001,2934.208444,-1,-1
1.71E+12,2,3.416280031,292.7172187,2934.209107,-1,-1
1.71E+12,2,3.416485763,292.6995854,2934.209727,-1,-1
1.71E+12,2,3.416690899,292.6820047,2934.210307,-1,-1
1.71E+12,2,3.416895384,292.6644814,2934.21085,-1,-1
1.71E+12,2,3.417099168,292.6470197,2934.211355,-1,-1
1.71E+12,2,3.417302202,292.6296238,2934.211821,-1,-1
1.71E+12,2,3.417504431,292.6122984,2934.212246,-1,-1
1.71E+12,2,3.417705806,292.5950477,2934.212631,-1,-1
1.71E+12,2,3.417906278,292.5778759,2934.212974,-1,-1
1.71E+12,2,3.418105801,292.5607869,2934.213275,-1,-1
1.71E+12,2,3.41830433,292.5437846,2934.213534,-1,-1
1.71E+12,2,3.418501825,292.5268724,2934.213751,-1,-1
1.71E+12,2,3.418698241,292.510054,2934.213925,-1,-1
1.71E+12,2,3.418893535,292.4933333,2934.214056,-1,-1
1.71E+12,2,3.419087668,292.4767134,2934.214145,-1,-1
1.71E+12,2,3.419280598,292.460198,2934.214189,-1,-1
1.71E+12,2,3.419472284,292.4437906,2934.214189,-1,-1
1.71E+12,2,3.419662688,292.4274943,2934.214147,-1,-1
1.71E+12,2,3.419851777,292.4113122,2934.214065,-1,-1
1.71E+12,2,3.420039516,292.3952469,2934.213943,-1,-1
1.71E+12,2,3.420225874,292.3793014,2934.213782,-1,-1
1.71E+12,2,3.420410818,292.3634781,2934.213582,-1,-1
1.71E+12,2,3.420594318,292.3477799,2934.213343,-1,-1
1.71E+12,2,3.420776348,292.3322088,2934.213064,-1,-1
1.71E+12,2,3.420956881,292.3167672,2934.212745,-1,-1
1.71E+12,2,3.421135889,292.3014573,2934.212386,-1,-1
1.71E+12,2,3.421313348,292.2862814,2934.211992,-1,-1
1.71E+12,2,3.421489234,292.2712412,2934.211563,-1,-1
1.71E+12,2,3.421663528,292.2563386,2934.211098,-1,-1
1.71E+12,2,3.42183621,292.2415751,2934.210598,-1,-1
1.71E+12,2,3.422007261,292.2269523,2934.210065,-1,-1
1.71E+12,2,3.422176656,292.2124725,2934.209501,-1,-1
1.71E+12,2,3.422344369,292.1981376,2934.208906,-1,-1
1.71E+12,2,3.422510383,292.1839493,2934.208285,-1,-1
1.71E+12,2,3.422674685,292.1699085,2934.207639,-1,-1
1.71E+12,2,3.422837259,292.1560166,2934.206963,-1,-1
1.71E+12,2,3.422998095,292.1422745,2934.206259,-1,-1
1.71E+12,2,3.423157183,292.1286829,2934.20553,-1,-1
1.71E+12,2,3.423314513,292.1152426,2934.204777,-1,-1
1.71E+12,2,3.423470078,292.1019543,2934.204002,-1,-1
1.71E+12,2,3.423623872,292.0888185,2934.203209,-1,-1
1.71E+12,2,3.423775888,292.0758356,2934.202398,-1,-1
1.71E+12,2,3.423926123,292.0630059,2934.201566,-1,-1
1.71E+12,2,3.424074572,292.0503299,2934.200716,-1,-1
1.71E+12,2,3.424221235,292.0378073,2934.199852,-1,-1
1.71E+12,2,3.424366113,292.0254383,2934.198975,-1,-1
1.71E+12,2,3.424509204,292.0132228,2934.198082,-1,-1
1.71E+12,2,3.424650508,292.0011609,2934.197179,-1,-1
1.71E+12,2,3.424790025,291.9892526,2934.196267,-1,-1
1.71E+12,2,3.424927757,291.9774975,2934.195341,-1,-1
1.71E+12,2,3.42506371,291.9658952,2934.194405,-1,-1
1.71E+12,2,3.425197889,291.9544453,2934.193464,-1,-1
1.71E+12,2,3.425330302,291.943147,2934.192519,-1,-1
1.71E+12,2,3.425460953,291.9319998,2934.191565,-1,-1
1.71E+12,2,3.425589846,291.9210036,2934.190606,-1,-1
1.71E+12,2,3.425716983,291.910158,2934.189646,-1,-1
1.71E+12,2,3.425842367,291.8994628,2934.188683,-1,-1
1.71E+12,2,3.425965998,291.8889178,2934.187719,-1,-1
1.71E+12,2,3.426087879,291.878523,2934.186758,-1,-1
1.71E+12,2,3.426208012,291.868278,2934.185802,-1,-1
1.71E+12,2,3.426326404,291.8581822,2934.184848,-1,-1
1.71E+12,2,3.426443057,291.8482355,2934.1839,-1,-1
1.71E+12,2,3.426557979,291.838437,2934.182962,-1,-1
1.71E+12,2,3.426671178,291.8287861,2934.182032,-1,-1
1.71E+12,2,3.426782661,291.8192822,2934.181111,-1,-1
1.71E+12,2,3.426892436,291.8099245,2934.180205,-1,-1
1.71E+12,2,3.427000512,291.8007123,2934.179314,-1,-1
1.71E+12,2,3.427106896,291.791645,2934.178437,-1,-1
1.71E+12,2,3.427211595,291.7827218,2934.177579,-1,-1
1.71E+12,2,3.427314617,291.7739421,2934.176742,-1,-1
1.71E+12,2,3.427415968,291.7653054,2934.175923,-1,-1
1.71E+12,2,3.427515661,291.7568105,2934.175117,-1,-1
1.71E+12,2,3.42761371,291.7484563,2934.174328,-1,-1
1.71E+12,2,3.427710121,291.7402421,2934.173554,-1,-1
1.71E+12,2,3.427804901,291.7321673,2934.172791,-1,-1
1.71E+12,2,3.427898061,291.7242311,2934.172045,-1,-1
1.71E+12,2,3.427989611,291.7164325,2934.171318,-1,-1
1.71E+12,2,3.42807956,291.7087707,2934.170606,-1,-1
1.71E+12,2,3.428167919,291.7012448,2934.169907,-1,-1
1.71E+12,2,3.428254698,291.6938539,2934.169225,-1,-1
1.71E+12,2,3.428339907,291.686597,2934.16856,-1,-1
1.71E+12,2,3.428423558,291.6794733,2934.167906,-1,-1
1.71E+12,2,3.428505662,291.6724816,2934.167266,-1,-1
1.71E+12,2,3.428586227,291.6656214,2934.166644,-1,-1
1.71E+12,2,3.428665261,291.6588919,2934.166037,-1,-1
1.71E+12,2,3.428742775,291.6522922,2934.165441,-1,-1
1.71E+12,2,3.428818773,291.6458218,2934.16486,-1,-1
1.71E+12,2,3.428893266,291.6394799,2934.164291,-1,-1
1.71E+12,2,3.428966262,291.6332658,2934.16373,-1,-1
1.71E+12,2,3.429037766,291.627179,2934.163177,-1,-1
1.71E+12,2,3.429107787,291.6212186,2934.162636,-1,-1
1.71E+12,2,3.429176338,291.6153837,2934.162103,-1,-1
1.71E+12,2,3.429243429,291.6096733,2934.16158,-1,-1
1.71E+12,2,3.429309067,291.6040868,2934.161069,-1,-1
1.71E+12,2,3.429373263,291.5986233,2934.160571,-1,-1
1.71E+12,2,3.429436027,291.5932819,2934.160081,-1,-1
1.71E+12,2,3.429497369,291.5880618,2934.159599,-1,-1
1.71E+12,2,3.429557298,291.582962,2934.159129,-1,-1
1.71E+12,2,3.429615825,291.5779818,2934.158668,-1,-1
1.71E+12,2,3.429672957,291.5731204,2934.158216,-1,-1
1.71E+12,2,3.429728705,291.5683771,2934.157771,-1,-1
1.71E+12,2,3.429783079,291.5637508,2934.15733,-1,-1
1.71E+12,2,3.429836086,291.5592409,2934.156892,-1,-1
1.71E+12,2,3.429887736,291.5548467,2934.156456,-1,-1
1.71E+12,2,3.429938034,291.5505676,2934.156026,-1,-1
1.71E+12,2,3.429986985,291.5464033,2934.1556,-1,-1
1.71E+12,2,3.430034597,291.542353,2934.155179,-1,-1
1.71E+12,2,3.430080883,291.5384157,2934.154762,-1,-1
1.71E+12,2,3.430125853,291.5345904,2934.154349,-1,-1
1.71E+12,2,3.430169518,291.5308763,2934.153936,-1,-1
1.71E+12,2,3.430211889,291.5272724,2934.153526,-1,-1
1.71E+12,2,3.43025298,291.5237774,2934.153123,-1,-1
1.71E+12,2,3.430292806,291.5203901,2934.152726,-1,-1
1.71E+12,2,3.430331381,291.5171093,2934.152333,-1,-1
1.71E+12,2,3.430368717,291.5139339,2934.151943,-1,-1
1.71E+12,2,3.430404825,291.510863,2934.151556,-1,-1
1.71E+12,2,3.430439718,291.5078956,2934.151172,-1,-1
1.71E+12,2,3.430473408,291.5050306,2934.150791,-1,-1
1.71E+12,2,3.4305059,291.5022674,2934.150417,-1,-1
1.71E+12,2,3.430537204,291.4996054,2934.150051,-1,-1
1.71E+12,2,3.430567333,291.4970433,2934.149691,-1,-1
1.71E+12,2,3.430596299,291.4945802,2934.149338,-1,-1
1.71E+12,2,3.430624117,291.4922147,2934.148994,-1,-1
1.71E+12,2,3.430650804,291.4899455,2934.148659,-1,-1
1.71E+12,2,3.430676375,291.4877711,2934.148334,-1,-1
1.71E+12,2,3.430700846,291.4856904,2934.148023,-1,-1
1.71E+12,2,3.430724228,291.4837023,2934.147725,-1,-1
1.71E+12,2,3.430746528,291.4818061,2934.147438,-1,-1
1.71E+12,2,3.430767756,291.4800012,2934.147163,-1,-1
1.71E+12,2,3.430787921,291.4782867,2934.146901,-1,-1
1.71E+12,2,3.430807032,291.4766618,2934.146649,-1,-1
1.71E+12,2,3.430825101,291.4751255,2934.146411,-1,-1
1.71E+12,2,3.430842141,291.4736766,2934.146192,-1,-1
1.71E+12,2,3.430858164,291.4723143,2934.145991,-1,-1
1.71E+12,2,3.430873182,291.4710374,2934.145808,-1,-1
1.71E+12,2,3.430887207,291.469845,2934.145642,-1,-1
1.71E+12,2,3.430900251,291.4687359,2934.145495,-1,-1
1.71E+12,2,3.430912325,291.4677093,2934.145367,-1,-1
1.71E+12,2,3.430923442,291.4667641,2934.14526,-1,-1
1.71E+12,2,3.430933617,291.4658989,2934.145176,-1,-1
1.71E+12,2,3.430942865,291.4651126,2934.145118,-1,-1
1.71E+12,2,3.4309512,291.4644039,2934.145083,-1,-1
1.71E+12,2,3.430958631,291.463772,2934.145073,-1,-1
1.71E+12,2,3.430965168,291.463216,2934.14509,-1,-1
1.71E+12,2,3.430970824,291.462735,2934.145133,-1,-1
1.71E+12,2,3.430975609,291.462328,2934.145204,-1,-1
1.71E+12,2,3.430979535,291.461994,2934.145305,-1,-1
1.71E+12,2,3.430982615,291.461732,2934.145436,-1,-1
1.71E+12,2,3.430984864,291.4615405,2934.145597,-1,-1
1.71E+12,2,3.430986295,291.4614186,2934.145787,-1,-1
1.71E+12,2,3.430986922,291.461365,2934.146007,-1,-1
1.71E+12,2,3.430986757,291.4613788,2934.146254,-1,-1
1.71E+12,2,3.430985807,291.4614592,2934.146529,-1,-1
1.71E+12,2,3.430984079,291.4616058,2934.146829,-1,-1
1.71E+12,2,3.43098158,291.4618179,2934.147156,-1,-1
1.71E+12,2,3.430978318,291.4620948,2934.147509,-1,-1
1.71E+12,2,3.430974302,291.4624358,2934.147889,-1,-1
1.71E+12,2,3.430969542,291.46284,2934.148293,-1,-1
1.71E+12,2,3.430964046,291.4633068,2934.14872,-1,-1
1.71E+12,2,3.430957819,291.4638358,2934.149172,-1,-1
1.71E+12,2,3.430950867,291.4644263,2934.149649,-1,-1
1.71E+12,2,3.430943197,291.4650779,2934.150149,-1,-1
1.71E+12,2,3.430934817,291.4657898,2934.150672,-1,-1
1.71E+12,2,3.430925733,291.4665616,2934.151218,-1,-1
1.71E+12,2,3.430915954,291.4673924,2934.151783,-1,-1
1.71E+12,2,3.430905491,291.4682813,2934.152366,-1,-1
1.71E+12,2,3.430894352,291.4692277,2934.152967,-1,-1
1.71E+12,2,3.430882546,291.4702309,2934.153585,-1,-1
1.71E+12,2,3.430870074,291.4712906,2934.154219,-1,-1
1.71E+12,2,3.430856934,291.4724071,2934.154866,-1,-1
1.71E+12,2,3.430843129,291.4735801,2934.155526,-1,-1
1.71E+12,2,3.430828664,291.4748093,2934.156196,-1,-1
1.71E+12,2,3.43081354,291.4760945,2934.156873,-1,-1
1.71E+12,2,3.430797764,291.4774351,2934.157558,-1,-1
1.71E+12,2,3.430781338,291.4788309,2934.158249,-1,-1
1.71E+12,2,3.430764264,291.4802819,2934.158943,-1,-1
1.71E+12,2,3.430746543,291.4817878,2934.159637,-1,-1
1.71E+12,2,3.430728171,291.4833492,2934.160329,-1,-1
1.71E+12,2,3.430709143,291.4849663,2934.161019,-1,-1
1.71E+12,2,3.430689458,291.4866393,2934.161707,-1,-1
1.71E+12,2,3.430669114,291.4883683,2934.162393,-1,-1
1.71E+12,2,3.430648113,291.4901532,2934.163074,-1,-1
1.71E+12,2,3.430626455,291.491994,2934.163746,-1,-1
1.71E+12,2,3.430604146,291.4938901,2934.16441,-1,-1
1.71E+12,2,3.430581185,291.4958417,2934.165063,-1,-1
1.71E+12,2,3.430557573,291.4978486,2934.165703,-1,-1
1.71E+12,2,3.430533306,291.4999114,2934.166327,-1,-1
1.71E+12,2,3.430508377,291.5020303,2934.166938,-1,-1
1.71E+12,2,3.430482786,291.5042057,2934.167533,-1,-1
1.71E+12,2,3.430456533,291.5064373,2934.168106,-1,-1
1.71E+12,2,3.430429622,291.5087249,2934.16866,-1,-1
1.71E+12,2,3.430402054,291.5110685,2934.169197,-1,-1
1.71E+12,2,3.430373826,291.5134681,2934.169717,-1,-1
1.71E+12,2,3.430344935,291.5159242,2934.170215,-1,-1
1.71E+12,2,3.430315379,291.5184369,2934.170693,-1,-1
1.71E+12,2,3.430285156,291.5210064,2934.17115,-1,-1
1.71E+12,2,3.43025426,291.5236331,2934.171581,-1,-1
1.71E+12,2,3.430222687,291.5263174,2934.171982,-1,-1
1.71E+12,2,3.430190435,291.5290595,2934.172356,-1,-1
1.71E+12,2,3.4301575,291.5318598,2934.172699,-1,-1
1.71E+12,2,3.430123874,291.5347189,2934.173009,-1,-1
1.71E+12,2,3.430089547,291.5376377,2934.173288,-1,-1
1.71E+12,2,3.430054508,291.5406171,2934.173534,-1,-1
1.71E+12,2,3.430018752,291.5436576,2934.173744,-1,-1
1.71E+12,2,3.429982267,291.54676,2934.173918,-1,-1
1.71E+12,2,3.429945046,291.5499253,2934.17406,-1,-1
1.71E+12,2,3.429907081,291.5531538,2934.174169,-1,-1
1.71E+12,2,3.429868364,291.5564464,2934.17424,-1,-1
1.71E+12,2,3.429828889,291.5598036,2934.174276,-1,-1
1.71E+12,2,3.429788649,291.5632259,2934.17428,-1,-1
1.71E+12,2,3.429747637,291.5667139,2934.174248,-1,-1
1.71E+12,2,3.429705846,291.5702684,2934.174178,-1,-1
1.71E+12,2,3.429663267,291.5738899,2934.174073,-1,-1
1.71E+12,2,3.429619894,291.5775792,2934.173932,-1,-1
1.71E+12,2,3.429575719,291.5813367,2934.173753,-1,-1
1.71E+12,2,3.429530739,291.5851628,2934.17354,-1,-1
1.71E+12,2,3.429484947,291.5890581,2934.173297,-1,-1
1.71E+12,2,3.42943834,291.593023,2934.173023,-1,-1
1.71E+12,2,3.429390908,291.597058,2934.172715,-1,-1
1.71E+12,2,3.429342648,291.6011637,2934.172377,-1,-1
1.71E+12,2,3.429293552,291.6053407,2934.172011,-1,-1
1.71E+12,2,3.429243611,291.6095897,2934.171616,-1,-1
1.71E+12,2,3.429192818,291.6139112,2934.171193,-1,-1
1.71E+12,2,3.429141167,291.618306,2934.170746,-1,-1
1.71E+12,2,3.429088653,291.6227744,2934.170276,-1,-1
1.71E+12,2,3.429035271,291.6273168,2934.169779,-1,-1
1.71E+12,2,3.428981015,291.6319337,2934.169258,-1,-1
1.71E+12,2,3.428925878,291.6366257,2934.168714,-1,-1
1.71E+12,2,3.428869851,291.6413938,2934.168148,-1,-1
1.71E+12,2,3.428812921,291.6462387,2934.167555,-1,-1
1.71E+12,2,3.428755081,291.6511614,2934.166943,-1,-1
1.71E+12,2,3.428696327,291.656162,2934.166314,-1,-1
1.71E+12,2,3.428636656,291.6612409,2934.165665,-1,-1
1.71E+12,2,3.42857606,291.6663988,2934.164999,-1,-1
1.71E+12,2,3.42851453,291.6716362,2934.16432,-1,-1
1.71E+12,2,3.428452063,291.6769538,2934.16363,-1,-1
1.71E+12,2,3.428388648,291.6823522,2934.162927,-1,-1
1.71E+12,2,3.428324279,291.6878321,2934.162214,-1,-1
1.71E+12,2,3.428258947,291.6933941,2934.161494,-1,-1
1.71E+12,2,3.428192646,291.6990389,2934.160765,-1,-1
1.71E+12,2,3.42812537,291.704767,2934.160026,-1,-1
1.71E+12,2,3.428057112,291.710579,2934.159281,-1,-1
1.71E+12,2,3.427987866,291.7164754,2934.158531,-1,-1
1.71E+12,2,3.427917625,291.7224567,2934.157776,-1,-1
1.71E+12,2,3.427846381,291.7285237,2934.157016,-1,-1
1.71E+12,2,3.427774124,291.7346773,2934.156258,-1,-1
1.71E+12,2,3.427700847,291.740918,2934.1555,-1,-1
1.71E+12,2,3.427626543,291.7472465,2934.154742,-1,-1
1.71E+12,2,3.427551207,291.7536632,2934.153987,-1,-1
1.71E+12,2,3.427474831,291.7601687,2934.153237,-1,-1
1.71E+12,2,3.42739741,291.7667637,2934.152492,-1,-1
1.71E+12,2,3.427318935,291.7734487,2934.151753,-1,-1
1.71E+12,2,3.427239399,291.7802244,2934.151027,-1,-1
1.71E+12,2,3.4271588,291.787091,2934.150314,-1,-1
1.71E+12,2,3.427077131,291.7940491,2934.149612,-1,-1
1.71E+12,2,3.42699439,291.8010989,2934.148925,-1,-1
1.71E+12,2,3.426910576,291.8082404,2934.148254,-1,-1
1.71E+12,2,3.426825693,291.8154734,2934.147599,-1,-1
1.71E+12,2,3.426739741,291.8227979,2934.146959,-1,-1
1.71E+12,2,3.426652719,291.830214,2934.146341,-1,-1
1.71E+12,2,3.426564624,291.8377217,2934.145747,-1,-1
1.71E+12,2,3.426475462,291.8453209,2934.145172,-1,-1
1.71E+12,2,3.426385233,291.8530115,2934.144621,-1,-1
1.71E+12,2,3.426293937,291.8607933,2934.144096,-1,-1
1.71E+12,2,3.426201575,291.8686665,2934.143595,-1,-1
1.71E+12,2,3.426108149,291.8766307,2934.143115,-1,-1
1.71E+12,2,3.426013661,291.8846859,2934.142659,-1,-1
1.71E+12,2,3.425918116,291.8928317,2934.142229,-1,-1
1.71E+12,2,3.425821515,291.9010679,2934.141824,-1,-1
1.71E+12,2,3.425723863,291.9093941,2934.141444,-1,-1
1.71E+12,2,3.425625166,291.91781,2934.141093,-1,-1
1.71E+12,2,3.425525423,291.9263155,2934.140773,-1,-1
1.71E+12,2,3.425424637,291.9349103,2934.140481,-1,-1
1.71E+12,2,3.425322817,291.9435939,2934.14022,-1,-1
1.71E+12,2,3.42521997,291.9523654,2934.139991,-1,-1
1.71E+12,2,3.425116103,291.9612245,2934.139794,-1,-1
1.71E+12,2,3.42501122,291.9701707,2934.139628,-1,-1
1.71E+12,2,3.42490533,291.9792033,2934.139498,-1,-1
1.71E+12,2,3.424798437,291.9883219,2934.139403,-1,-1
1.71E+12,2,3.42469055,291.9975258,2934.139341,-1,-1
1.71E+12,2,3.424581679,292.0068142,2934.139311,-1,-1
1.71E+12,2,3.424471832,292.0161864,2934.139317,-1,-1
1.71E+12,2,3.424361022,292.0256413,2934.139356,-1,-1
1.71E+12,2,3.42424926,292.0351779,2934.139429,-1,-1
1.71E+12,2,3.424136561,292.044795,2934.13954,-1,-1
1.71E+12,2,3.424022942,292.0544912,2934.139687,-1,-1
1.71E+12,2,3.423908416,292.0642653,2934.139867,-1,-1
1.71E+12,2,3.423792998,292.0741161,2934.140082,-1,-1
1.71E+12,2,3.423676704,292.0840422,2934.140335,-1,-1
1.71E+12,2,3.423559552,292.0940421,2934.140627,-1,-1
1.71E+12,2,3.423441564,292.104114,2934.140955,-1,-1
1.71E+12,2,3.423322758,292.1142562,2934.141321,-1,-1
1.71E+12,2,3.423203155,292.1244671,2934.141724,-1,-1
1.71E+12,2,3.423082775,292.1347449,2934.142159,-1,-1
1.71E+12,2,3.422961638,292.1450878,2934.142625,-1,-1
1.71E+12,2,3.422839767,292.1554941,2934.143126,-1,-1
1.71E+12,2,3.422717183,292.1659618,2934.143658,-1,-1
1.71E+12,2,3.422593907,292.1764892,2934.14422,-1,-1
1.71E+12,2,3.422469959,292.1870746,2934.14481,-1,-1
1.71E+12,2,3.422345365,292.1977158,2934.145428,-1,-1
1.71E+12,2,3.422220147,292.2084109,2934.146073,-1,-1
1.71E+12,2,3.422094329,292.2191579,2934.146744,-1,-1
1.71E+12,2,3.421967936,292.2299546,2934.147444,-1,-1
1.71E+12,2,3.421840993,292.2407989,2934.14817,-1,-1
1.71E+12,2,3.421713527,292.2516886,2934.148917,-1,-1
1.71E+12,2,3.421585563,292.2626214,2934.149686,-1,-1
1.71E+12,2,3.421457128,292.2735952,2934.150479,-1,-1
1.71E+12,2,3.421328245,292.2846078,2934.151296,-1,-1
1.71E+12,2,3.421198941,292.2956571,2934.152133,-1,-1
1.71E+12,2,3.421069247,292.3067404,2934.152993,-1,-1
1.71E+12,2,3.420939191,292.3178552,2934.153872,-1,-1
1.71E+12,2,3.420808803,292.3289991,2934.154766,-1,-1
1.71E+12,2,3.420678109,292.3401698,2934.155673,-1,-1
1.71E+12,2,3.420547134,292.3513652,2934.156595,-1,-1
1.71E+12,2,3.420415904,292.3625831,2934.157532,-1,-1
1.71E+12,2,3.420284446,292.3738212,2934.158479,-1,-1
1.71E+12,2,3.420152784,292.3850773,2934.159437,-1,-1
1.71E+12,2,3.420020948,292.396349,2934.160403,-1,-1
1.71E+12,2,3.419888965,292.407634,2934.161372,-1,-1
1.71E+12,2,3.419756865,292.4189297,2934.162344,-1,-1
1.71E+12,2,3.419624673,292.4302339,2934.163319,-1,-1
1.71E+12,2,3.419492415,292.4415445,2934.164297,-1,-1
1.71E+12,2,3.419360113,292.4528596,2934.165272,-1,-1
1.71E+12,2,3.419227784,292.4641777,2934.166247,-1,-1
1.71E+12,2,3.419095449,292.4754969,2934.16722,-1,-1
1.71E+12,2,3.418963132,292.4868155,2934.168188,-1,-1
1.71E+12,2,3.418830856,292.4981311,2934.169154,-1,-1
1.71E+12,2,3.418698647,292.5094418,2934.17012,-1,-1
1.71E+12,2,3.418566533,292.520745,2934.171083,-1,-1
1.71E+12,2,3.418434537,292.5320389,2934.172042,-1,-1
1.71E+12,2,3.418302683,292.5433213,2934.172999,-1,-1
1.71E+12,2,3.418170993,292.5545905,2934.173952,-1,-1
1.71E+12,2,3.418039482,292.565845,2934.174897,-1,-1
1.71E+12,2,3.417908171,292.5770832,2934.175834,-1,-1
1.71E+12,2,3.417777081,292.5883032,2934.176765,-1,-1
1.71E+12,2,3.417646229,292.5995036,2934.177688,-1,-1
1.71E+12,2,3.417515632,292.6106828,2934.1786,-1,-1
1.71E+12,2,3.41738531,292.6218393,2934.179503,-1,-1
1.71E+12,2,3.417255281,292.6329714,2934.180396,-1,-1
1.71E+12,2,3.417125558,292.6440781,2934.181278,-1,-1
1.71E+12,2,3.416996155,292.6551581,2934.182146,-1,-1
1.71E+12,2,3.416867083,292.6662106,2934.183003,-1,-1
1.71E+12,2,3.416738359,292.6772339,2934.18385,-1,-1
1.71E+12,2,3.416610005,292.6882264,2934.184682,-1,-1
1.71E+12,2,3.416482034,292.6991868,2934.185502,-1,-1
1.71E+12,2,3.416354458,292.7101142,2934.186312,-1,-1
1.71E+12,2,3.416227285,292.7210077,2934.187109,-1,-1
1.71E+12,2,3.416100522,292.7318669,2934.187889,-1,-1
1.71E+12,2,3.415974171,292.7426916,2934.188655,-1,-1
1.71E+12,2,3.415848236,292.7534814,2934.189408,-1,-1
1.71E+12,2,3.415722722,292.7642357,2934.190145,-1,-1
1.71E+12,2,3.41559764,292.7749539,2934.190865,-1,-1
1.71E+12,2,3.415472997,292.7856353,2934.191575,-1,-1
1.71E+12,2,3.415348797,292.7962794,2934.192274,-1,-1
1.71E+12,2,3.415225049,292.8068856,2934.192958,-1,-1
1.71E+12,2,3.415101753,292.8174537,2934.193631,-1,-1
1.71E+12,2,3.414978913,292.8279835,2934.194293,-1,-1
1.71E+12,2,3.41485653,292.8384749,2934.194944,-1,-1
1.71E+12,2,3.414734609,292.8489274,2934.195582,-1,-1
1.71E+12,2,3.414613155,292.8593407,2934.196212,-1,-1
1.71E+12,2,3.41449217,292.8697145,2934.196834,-1,-1
1.71E+12,2,3.414371658,292.8800484,2934.197447,-1,-1
1.71E+12,2,3.414251623,292.8903423,2934.198053,-1,-1
1.71E+12,2,3.414132066,292.9005959,2934.198657,-1,-1
1.71E+12,2,3.414012986,292.9108093,2934.199259,-1,-1
1.71E+12,2,3.413894381,292.9209827,2934.199854,-1,-1
1.71E+12,2,3.413776249,292.9311162,2934.200447,-1,-1
1.71E+12,2,3.413658591,292.9412098,2934.201038,-1,-1
1.71E+12,2,3.41354141,292.9512632,2934.201627,-1,-1
1.71E+12,2,3.41342471,292.961276,2934.202211,-1,-1
1.71E+12,2,3.413308493,292.9712482,2934.202798,-1,-1
1.71E+12,2,3.413192759,292.9811795,2934.203388,-1,-1
1.71E+12,2,3.413077513,292.9910698,2934.203978,-1,-1
1.71E+12,2,3.412962754,293.0009188,2934.204569,-1,-1
1.71E+12,2,3.412848486,293.0107264,2934.205167,-1,-1
1.71E+12,2,3.412734715,293.020492,2934.205767,-1,-1
1.71E+12,2,3.412621446,293.0302152,2934.206368,-1,-1
1.71E+12,2,3.412508684,293.0398955,2934.206976,-1,-1
1.71E+12,2,3.412396436,293.0495324,2934.207595,-1,-1
1.71E+12,2,3.412284706,293.0591254,2934.20822,-1,-1
1.71E+12,2,3.412173499,293.0686741,2934.208854,-1,-1
1.71E+12,2,3.412062821,293.0781781,2934.209499,-1,-1
1.71E+12,2,3.411952675,293.0876369,2934.210155,-1,-1
1.71E+12,2,3.411843067,293.0970501,2934.21082,-1,-1
1.71E+12,2,3.411734008,293.1064169,2934.211495,-1,-1
1.71E+12,2,3.411625507,293.1157363,2934.212185,-1,-1
1.71E+12,2,3.411517579,293.125007,2934.212884,-1,-1
1.71E+12,2,3.411410233,293.1342283,2934.213589,-1,-1
1.71E+12,2,3.411303482,293.1433991,2934.214303,-1,-1
1.71E+12,2,3.411197335,293.1525185,2934.215028,-1,-1
1.71E+12,2,3.411091801,293.1615857,2934.215759,-1,-1
1.71E+12,2,3.410986891,293.1705999,2934.216496,-1,-1
1.71E+12,2,3.410882623,293.1795594,2934.217241,-1,-1
1.71E+12,2,3.410779014,293.1884627,2934.217992,-1,-1
1.71E+12,2,3.410676079,293.1973087,2934.218748,-1,-1
1.71E+12,2,3.410573835,293.2060956,2934.219509,-1,-1
1.71E+12,2,3.410472301,293.2148221,2934.22028,-1,-1
1.71E+12,2,3.410371495,293.2234864,2934.221058,-1,-1
1.71E+12,2,3.410271437,293.232087,2934.22184,-1,-1
1.71E+12,2,3.410172145,293.240622,2934.222631,-1,-1
1.71E+12,2,3.410073642,293.2490896,2934.223431,-1,-1
1.71E+12,2,3.409975953,293.2574876,2934.224238,-1,-1
1.71E+12,2,3.409879105,293.2658138,2934.225054,-1,-1
1.71E+12,2,3.409783125,293.2740656,2934.22588,-1,-1
1.71E+12,2,3.409688041,293.2822409,2934.22671,-1,-1
1.71E+12,2,3.409593879,293.2903372,2934.227542,-1,-1
1.71E+12,2,3.409500667,293.2983521,2934.228379,-1,-1
1.71E+12,2,3.409408434,293.3062832,2934.229222,-1,-1
1.71E+12,2,3.40931721,293.3141279,2934.230067,-1,-1
1.71E+12,2,3.409227019,293.321884,2934.230913,-1,-1
1.71E+12,2,3.409137892,293.329549,2934.231765,-1,-1
1.71E+12,2,3.409049856,293.3371204,2934.232619,-1,-1
1.71E+12,2,3.408962936,293.344596,2934.233473,-1,-1
1.71E+12,2,3.408877162,293.3519735,2934.234328,-1,-1
1.71E+12,2,3.40879256,293.3592502,2934.235188,-1,-1
1.71E+12,2,3.408709159,293.366424,2934.236046,-1,-1
1.71E+12,2,3.408626991,293.3734919,2934.236897,-1,-1
1.71E+12,2,3.408546088,293.3804513,2934.237743,-1,-1
1.71E+12,2,3.408466475,293.3872999,2934.238583,-1,-1
1.71E+12,2,3.408388177,293.3940355,2934.239412,-1,-1
1.71E+12,2,3.408311217,293.4006563,2934.240231,-1,-1
1.71E+12,2,3.408235617,293.4071602,2934.24104,-1,-1
1.71E+12,2,3.408161399,293.4135454,2934.241836,-1,-1
1.71E+12,2,3.408088584,293.4198101,2934.242615,-1,-1
1.71E+12,2,3.408017188,293.4259528,2934.243379,-1,-1
1.71E+12,2,3.407947234,293.4319716,2934.244132,-1,-1
1.71E+12,2,3.407878743,293.4378647,2934.244869,-1,-1
1.71E+12,2,3.407811731,293.4436307,2934.245592,-1,-1
1.71E+12,2,3.407746213,293.4492682,2934.246305,-1,-1
1.71E+12,2,3.407682205,293.4547758,2934.247005,-1,-1
1.71E+12,2,3.407619723,293.4601524,2934.247689,-1,-1
1.71E+12,2,3.407558775,293.465397,2934.248357,-1,-1
1.71E+12,2,3.407499369,293.4705089,2934.24901,-1,-1
1.71E+12,2,3.407441515,293.4754874,2934.249642,-1,-1
1.71E+12,2,3.407385221,293.4803319,2934.250252,-1,-1
1.71E+12,2,3.40733049,293.4850417,2934.250844,-1,-1
1.71E+12,2,3.407277331,293.4896165,2934.25142,-1,-1
1.71E+12,2,3.407225746,293.4940558,2934.251975,-1,-1
1.71E+12,2,3.407175736,293.4983596,2934.252512,-1,-1
1.71E+12,2,3.407127301,293.502528,2934.253034,-1,-1
1.71E+12,2,3.407080438,293.5065611,2934.253538,-1,-1
1.71E+12,2,3.407035138,293.5104597,2934.254022,-1,-1
1.71E+12,2,3.406991391,293.5142247,2934.254488,-1,-1
1.71E+12,2,3.406949184,293.5178572,2934.254937,-1,-1
1.71E+12,2,3.406908501,293.5213586,2934.255365,-1,-1
1.71E+12,2,3.406869327,293.5247302,2934.25577,-1,-1
1.71E+12,2,3.406831643,293.5279735,2934.256157,-1,-1
1.71E+12,2,3.406795429,293.5310903,2934.256524,-1,-1
1.71E+12,2,3.406760665,293.5340823,2934.25687,-1,-1
1.71E+12,2,3.406727324,293.5369519,2934.257195,-1,-1
1.71E+12,2,3.406695379,293.5397015,2934.257503,-1,-1
1.71E+12,2,3.406664797,293.5423337,2934.25779,-1,-1
1.71E+12,2,3.406635545,293.5448513,2934.258053,-1,-1
1.71E+12,2,3.406607591,293.5472574,2934.258298,-1,-1
1.71E+12,2,3.406580901,293.5495547,2934.258527,-1,-1
1.71E+12,2,3.406555437,293.5517465,2934.258735,-1,-1
1.71E+12,2,3.406531158,293.5538362,2934.258921,-1,-1
1.71E+12,2,3.406508019,293.5558279,2934.259089,-1,-1
1.71E+12,2,3.406485975,293.5577253,2934.259238,-1,-1
1.71E+12,2,3.40646498,293.5595325,2934.259366,-1,-1
1.71E+12,2,3.406444987,293.5612535,2934.259474,-1,-1
1.71E+12,2,3.406425945,293.5628926,2934.259566,-1,-1
1.71E+12,2,3.406407804,293.5644543,2934.259641,-1,-1
1.71E+12,2,3.406390512,293.5659428,2934.259696,-1,-1
1.71E+12,2,3.406374018,293.5673627,2934.259737,-1,-1
1.71E+12,2,3.40635827,293.5687186,2934.259766,-1,-1
1.71E+12,2,3.406343208,293.5700152,2934.259781,-1,-1
1.71E+12,2,3.406328776,293.5712578,2934.259778,-1,-1
1.71E+12,2,3.406314914,293.5724514,2934.259761,-1,-1
1.71E+12,2,3.406301561,293.5736012,2934.259729,-1,-1
1.71E+12,2,3.406288658,293.5747124,2934.259678,-1,-1
1.71E+12,2,3.406276145,293.57579,2934.25961,-1,-1
1.71E+12,2,3.406263963,293.5768392,2934.259531,-1,-1
1.71E+12,2,3.406252048,293.5778655,2934.259436,-1,-1
1.71E+12,2,3.406240343,293.5788738,2934.259327,-1,-1
1.71E+12,2,3.406228788,293.5798693,2934.259206,-1,-1
1.71E+12,2,3.406217321,293.5808573,2934.259072,-1,-1
1.71E+12,2,3.406205884,293.5818428,2934.258924,-1,-1
1.71E+12,2,3.406194419,293.5828308,2934.258763,-1,-1
1.71E+12,2,3.406182868,293.5838263,2934.258593,-1,-1
1.71E+12,2,3.406171177,293.5848341,2934.258412,-1,-1
1.71E+12,2,3.406159291,293.5858587,2934.258224,-1,-1
1.71E+12,2,3.406147153,293.5869051,2934.25803,-1,-1
1.71E+12,2,3.406134707,293.5879782,2934.25783,-1,-1
1.71E+12,2,3.406121896,293.5890828,2934.257622,-1,-1
1.71E+12,2,3.406108665,293.5902237,2934.257403,-1,-1
1.71E+12,2,3.406094958,293.5914058,2934.257178,-1,-1
1.71E+12,2,3.406080722,293.5926336,2934.256946,-1,-1
1.71E+12,2,3.406065908,293.5939112,2934.256703,-1,-1
1.71E+12,2,3.406050472,293.5952426,2934.256448,-1,-1
1.71E+12,2,3.406034362,293.5966321,2934.25618,-1,-1
1.71E+12,2,3.406017532,293.5980839,2934.255895,-1,-1
1.71E+12,2,3.405999933,293.5996019,2934.255592,-1,-1
1.71E+12,2,3.405981522,293.6011902,2934.255275,-1,-1
1.71E+12,2,3.405962252,293.6028525,2934.254945,-1,-1
1.71E+12,2,3.405942083,293.6045924,2934.254598,-1,-1
1.71E+12,2,3.405920979,293.6064131,2934.254235,-1,-1
1.71E+12,2,3.405898901,293.6083178,2934.253858,-1,-1
1.71E+12,2,3.405875816,293.6103094,2934.253467,-1,-1
1.71E+12,2,3.405851689,293.6123909,2934.25306,-1,-1
1.71E+12,2,3.405826489,293.6145651,2934.252641,-1,-1
1.71E+12,2,3.405800184,293.6168347,2934.25221,-1,-1
1.71E+12,2,3.405772743,293.6192023,2934.251763,-1,-1
1.71E+12,2,3.405744141,293.6216701,2934.251302,-1,-1
1.71E+12,2,3.405714352,293.6242403,2934.250828,-1,-1
1.71E+12,2,3.405683353,293.6269151,2934.25034,-1,-1
1.71E+12,2,3.40565112,293.6296963,2934.249834,-1,-1
1.71E+12,2,3.405617632,293.6325859,2934.24931,-1,-1
1.71E+12,2,3.40558287,293.6355854,2934.248769,-1,-1
1.71E+12,2,3.405546813,293.6386968,2934.248209,-1,-1
1.71E+12,2,3.405509438,293.6419219,2934.24763,-1,-1
1.71E+12,2,3.405470726,293.6452625,2934.247036,-1,-1
1.71E+12,2,3.405430661,293.64872,2934.246424,-1,-1
1.71E+12,2,3.405389229,293.6522955,2934.245791,-1,-1
1.71E+12,2,3.405346423,293.6559896,2934.245136,-1,-1
1.71E+12,2,3.405302236,293.659803,2934.244461,-1,-1
1.71E+12,2,3.405256655,293.6637368,2934.243761,-1,-1
1.71E+12,2,3.405209671,293.6677919,2934.243038,-1,-1
1.71E+12,2,3.405161274,293.6719689,2934.242294,-1,-1
1.71E+12,2,3.405111456,293.6762687,2934.241528,-1,-1
1.71E+12,2,3.405060207,293.6806922,2934.240738,-1,-1
1.71E+12,2,3.405007522,293.6852398,2934.239924,-1,-1
1.71E+12,2,3.404953395,293.689912,2934.239089,-1,-1
1.71E+12,2,3.404897825,293.694709,2934.238231,-1,-1
1.71E+12,2,3.404840807,293.6996311,2934.237348,-1,-1
1.71E+12,2,3.404782334,293.704679,2934.23644,-1,-1
1.71E+12,2,3.4047224,293.7098533,2934.235507,-1,-1
1.71E+12,2,3.404660997,293.7151546,2934.234547,-1,-1
1.71E+12,2,3.40459812,293.7205834,2934.233561,-1,-1
1.71E+12,2,3.404533765,293.7261401,2934.23255,-1,-1
1.71E+12,2,3.404467927,293.731825,2934.231515,-1,-1
1.71E+12,2,3.4044006,293.7376388,2934.230451,-1,-1
1.71E+12,2,3.404331779,293.7435819,2934.22936,-1,-1
1.71E+12,2,3.40426146,293.7496546,2934.22824,-1,-1
1.71E+12,2,3.404189636,293.7558577,2934.227091,-1,-1
1.71E+12,2,3.404116302,293.7621915,2934.225915,-1,-1
1.71E+12,2,3.404041451,293.7686567,2934.224714,-1,-1
1.71E+12,2,3.403965072,293.7752543,2934.223488,-1,-1
1.71E+12,2,3.403887151,293.7819854,2934.222238,-1,-1
1.71E+12,2,3.40380768,293.7888508,2934.220966,-1,-1
1.71E+12,2,3.403726647,293.7958516,2934.219674,-1,-1
1.71E+12,2,3.403644044,293.8029885,2934.218363,-1,-1
1.71E+12,2,3.403559859,293.8102625,2934.217033,-1,-1
1.71E+12,2,3.403474079,293.8176749,2934.215686,-1,-1
1.71E+12,2,3.403386689,293.8252268,2934.214322,-1,-1
1.71E+12,2,3.403297673,293.8329198,2934.212942,-1,-1
1.71E+12,2,3.403207018,293.840755,2934.211549,-1,-1
1.71E+12,2,3.403114712,293.8487334,2934.210144,-1,-1
1.71E+12,2,3.403020748,293.8568558,2934.208728,-1,-1
1.71E+12,2,3.402925113,293.865123,2934.207301,-1,-1
1.71E+12,2,3.402827794,293.8735367,2934.205864,-1,-1
1.71E+12,2,3.402728771,293.8820981,2934.204418,-1,-1
1.71E+12,2,3.402628027,293.890809,2934.202964,-1,-1
1.71E+12,2,3.402525543,293.8996711,2934.201504,-1,-1
1.71E+12,2,3.402421302,293.9086858,2934.200039,-1,-1
1.71E+12,2,3.402315289,293.9178544,2934.198571,-1,-1
1.71E+12,2,3.402207488,293.9271785,2934.1971,-1,-1
1.71E+12,2,3.402097881,293.9366595,2934.19563,-1,-1
1.71E+12,2,3.401986453,293.9462988,2934.194166,-1,-1
1.71E+12,2,3.40187319,293.9560976,2934.192707,-1,-1
1.71E+12,2,3.401758073,293.9660576,2934.191254,-1,-1
1.71E+12,2,3.401641085,293.9761804,2934.189806,-1,-1
1.71E+12,2,3.401522209,293.9864673,2934.188365,-1,-1
1.71E+12,2,3.401401427,293.9969199,2934.186927,-1,-1
1.71E+12,2,3.401278723,294.0075399,2934.185497,-1,-1
1.71E+12,2,3.401154081,294.0183285,2934.184078,-1,-1
1.71E+12,2,3.401027483,294.0292872,2934.182671,-1,-1
1.71E+12,2,3.400898915,294.0404175,2934.181276,-1,-1
1.71E+12,2,3.400768358,294.0517209,2934.179892,-1,-1
1.71E+12,2,3.400635797,294.0631987,2934.178526,-1,-1
1.71E+12,2,3.400501218,294.0748523,2934.177177,-1,-1
1.71E+12,2,3.400364605,294.086683,2934.175846,-1,-1
1.71E+12,2,3.400225943,294.0986922,2934.174536,-1,-1
1.71E+12,2,3.400085223,294.1108807,2934.173247,-1,-1
1.71E+12,2,3.399942434,294.1232494,2934.171979,-1,-1
1.71E+12,2,3.399797565,294.1357994,2934.170734,-1,-1
1.71E+12,2,3.39965061,294.1485312,2934.169518,-1,-1
1.71E+12,2,3.399501562,294.1614454,2934.168329,-1,-1
1.71E+12,2,3.399350417,294.1745425,2934.167167,-1,-1
1.71E+12,2,3.399197171,294.1878227,2934.16603,-1,-1
1.71E+12,2,3.399041825,294.2012862,2934.164923,-1,-1
1.71E+12,2,3.398884379,294.2149328,2934.163844,-1,-1
1.71E+12,2,3.398724838,294.2287621,2934.162792,-1,-1
1.71E+12,2,3.398563209,294.2427736,2934.16177,-1,-1
1.71E+12,2,3.398399498,294.2569669,2934.160778,-1,-1
1.71E+12,2,3.398233712,294.2713413,2934.159814,-1,-1
1.71E+12,2,3.398065864,294.2858958,2934.15888,-1,-1
1.71E+12,2,3.397895965,294.3006293,2934.15798,-1,-1
1.71E+12,2,3.397724026,294.3155411,2934.157114,-1,-1
1.71E+12,2,3.397550062,294.3306298,2934.156281,-1,-1
1.71E+12,2,3.397374091,294.3458939,2934.155482,-1,-1
1.71E+12,2,3.397196131,294.3613319,2934.15472,-1,-1
1.71E+12,2,3.397016202,294.3769419,2934.153992,-1,-1
1.71E+12,2,3.396834328,294.3927222,2934.1533,-1,-1
1.71E+12,2,3.396650531,294.4086706,2934.152647,-1,-1
1.71E+12,2,3.396464837,294.4247851,2934.152031,-1,-1
1.71E+12,2,3.396277274,294.4410632,2934.151452,-1,-1
1.71E+12,2,3.396087871,294.4575024,2934.150911,-1,-1
1.71E+12,2,3.395896663,294.4740998,2934.150412,-1,-1
1.71E+12,2,3.395703687,294.490852,2934.149953,-1,-1
1.71E+12,2,3.395508979,294.5077562,2934.149532,-1,-1
1.71E+12,2,3.395312574,294.5248091,2934.149149,-1,-1
1.71E+12,2,3.39511451,294.5420076,2934.148804,-1,-1
1.71E+12,2,3.394914828,294.5593482,2934.148496,-1,-1
1.71E+12,2,3.39471357,294.5768272,2934.148225,-1,-1
1.71E+12,2,3.394510778,294.594441,2934.147993,-1,-1
1.71E+12,2,3.394306499,294.6121855,2934.147799,-1,-1
1.71E+12,2,3.394100778,294.6300569,2934.147641,-1,-1
1.71E+12,2,3.393893666,294.6480507,2934.147519,-1,-1
1.71E+12,2,3.393685212,294.6661628,2934.147434,-1,-1
1.71E+12,2,3.393475466,294.6843888,2934.147386,-1,-1
1.71E+12,2,3.39326448,294.7027242,2934.147375,-1,-1
1.71E+12,2,3.393052308,294.7211643,2934.1474,-1,-1
1.71E+12,2,3.392839003,294.7397047,2934.14746,-1,-1
1.71E+12,2,3.392624619,294.7583404,2934.147553,-1,-1
1.71E+12,2,3.392409214,294.7770667,2934.14768,-1,-1
1.71E+12,2,3.39219284,294.795879,2934.147843,-1,-1
1.71E+12,2,3.391975551,294.8147725,2934.148042,-1,-1
1.71E+12,2,3.391757408,294.833742,2934.148279,-1,-1
1.71E+12,2,3.391538473,294.8527822,2934.148552,-1,-1
1.71E+12,2,3.391318806,294.8718879,2934.148862,-1,-1
1.71E+12,2,3.391098471,294.8910534,2934.14921,-1,-1
1.71E+12,2,3.390877532,294.9102733,2934.149594,-1,-1
1.71E+12,2,3.390656055,294.9295417,2934.150018,-1,-1
1.71E+12,2,3.390434112,294.9488526,2934.150482,-1,-1
1.71E+12,2,3.390211765,294.9682004,2934.150985,-1,-1
1.71E+12,2,3.389989074,294.98758,2934.151527,-1,-1
1.71E+12,2,3.389766106,295.0069855,2934.152105,-1,-1
1.71E+12,2,3.389542927,295.0264113,2934.152719,-1,-1
1.71E+12,2,3.389319601,295.0458517,2934.15337,-1,-1
1.71E+12,2,3.38909619,295.0653014,2934.15406,-1,-1
1.71E+12,2,3.388872759,295.0847547,2934.15479,-1,-1
1.71E+12,2,3.388649374,295.1042059,2934.155558,-1,-1
1.71E+12,2,3.388426098,295.1236494,2934.156366,-1,-1
1.71E+12,2,3.388202998,295.1430795,2934.15721,-1,-1
1.71E+12,2,3.38798014,295.1624904,2934.158091,-1,-1
1.71E+12,2,3.387757587,295.1818766,2934.159007,-1,-1
1.71E+12,2,3.387535402,295.2012327,2934.159958,-1,-1
1.71E+12,2,3.387313646,295.2205532,2934.160941,-1,-1
1.71E+12,2,3.387092378,295.239833,2934.161957,-1,-1
1.71E+12,2,3.38687165,295.2590676,2934.163006,-1,-1
1.71E+12,2,3.386651519,295.2782521,2934.164087,-1,-1
1.71E+12,2,3.386432039,295.2973817,2934.165199,-1,-1
1.71E+12,2,3.386213267,295.3164515,2934.166345,-1,-1
1.71E+12,2,3.385995257,295.3354567,2934.167522,-1,-1
1.71E+12,2,3.385778062,295.3543927,2934.168731,-1,-1
1.71E+12,2,3.385561736,295.3732547,2934.16997,-1,-1
1.71E+12,2,3.385346331,295.3920384,2934.171239,-1,-1
1.71E+12,2,3.385131895,295.4107393,2934.172537,-1,-1
1.71E+12,2,3.384918477,295.4293533,2934.173865,-1,-1
1.71E+12,2,3.384706124,295.4478763,2934.175221,-1,-1
1.71E+12,2,3.384494884,295.4663038,2934.176605,-1,-1
1.71E+12,2,3.384284803,295.4846322,2934.178015,-1,-1
1.71E+12,2,3.384075926,295.5028572,2934.179451,-1,-1
1.71E+12,2,3.383868297,295.5209752,2934.18091,-1,-1
1.71E+12,2,3.383661958,295.5389823,2934.182393,-1,-1
1.71E+12,2,3.383456957,295.5568743,2934.183896,-1,-1
1.71E+12,2,3.383253338,295.5746475,2934.185419,-1,-1
1.71E+12,2,3.383051144,295.5922981,2934.186959,-1,-1
1.71E+12,2,3.382850419,295.609822,2934.188514,-1,-1
1.71E+12,2,3.382651203,295.627216,2934.190084,-1,-1
1.71E+12,2,3.382453532,295.6444767,2934.191668,-1,-1
1.71E+12,2,3.382257441,295.661601,2934.193261,-1,-1
1.71E+12,2,3.382062963,295.678586,2934.194863,-1,-1
1.71E+12,2,3.381870127,295.6954293,2934.19647,-1,-1
1.71E+12,2,3.381678964,295.712128,2934.198082,-1,-1
1.71E+12,2,3.381489508,295.7286792,2934.199695,-1,-1
1.71E+12,2,3.381301787,295.7450803,2934.201312,-1,-1
1.71E+12,2,3.381115831,295.7613288,2934.202928,-1,-1
1.71E+12,2,3.380931667,295.7774221,2934.20454,-1,-1
1.71E+12,2,3.380749321,295.7933582,2934.206147,-1,-1
1.71E+12,2,3.380568814,295.8091349,2934.207749,-1,-1
1.71E+12,2,3.38039017,295.8247502,2934.209344,-1,-1
1.71E+12,2,3.38021341,295.8402023,2934.210931,-1,-1
1.71E+12,2,3.380038551,295.8554896,2934.212507,-1,-1
1.71E+12,2,3.379865613,295.8706103,2934.21407,-1,-1
1.71E+12,2,3.379694616,295.8855627,2934.215614,-1,-1
1.71E+12,2,3.379525576,295.9003452,2934.217139,-1,-1
1.71E+12,2,3.37935851,295.9149564,2934.218645,-1,-1
1.71E+12,2,3.379193438,295.9293946,2934.220129,-1,-1
1.71E+12,2,3.379030371,295.9436586,2934.221586,-1,-1
1.71E+12,2,3.378869318,295.9577477,2934.223011,-1,-1
1.71E+12,2,3.37871029,295.9716608,2934.224403,-1,-1
1.71E+12,2,3.3785533,295.9853968,2934.22576,-1,-1
1.71E+12,2,3.378398361,295.9989546,2934.227081,-1,-1
1.71E+12,2,3.378245483,296.0123331,2934.228366,-1,-1
1.71E+12,2,3.37809468,296.0255312,2934.229613,-1,-1
1.71E+12,2,3.37794596,296.0385479,2934.23082,-1,-1
1.71E+12,2,3.377799332,296.0513827,2934.231985,-1,-1
1.71E+12,2,3.377654799,296.0640351,2934.23311,-1,-1
1.71E+12,2,3.377512364,296.076505,2934.234195,-1,-1
1.71E+12,2,3.377372029,296.0887918,2934.235238,-1,-1
1.71E+12,2,3.377233801,296.1008952,2934.236238,-1,-1
1.71E+12,2,3.377097685,296.1128146,2934.237194,-1,-1
1.71E+12,2,3.376963687,296.1245494,2934.238104,-1,-1
1.71E+12,2,3.376831812,296.1360992,2934.238968,-1,-1
1.71E+12,2,3.376702064,296.1474635,2934.239788,-1,-1
1.71E+12,2,3.37657445,296.1586419,2934.240562,-1,-1
1.71E+12,2,3.376448974,296.1696337,2934.241289,-1,-1
1.71E+12,2,3.376325637,296.180439,2934.241967,-1,-1
1.71E+12,2,3.376204437,296.1910577,2934.242597,-1,-1
1.71E+12,2,3.376085379,296.2014895,2934.243178,-1,-1
1.71E+12,2,3.375968473,296.2117336,2934.243708,-1,-1
1.71E+12,2,3.375853722,296.2217895,2934.244189,-1,-1
1.71E+12,2,3.375741128,296.2316571,2934.244622,-1,-1
1.71E+12,2,3.375630689,296.2413364,2934.245006,-1,-1
1.71E+12,2,3.375522407,296.2508272,2934.245344,-1,-1
1.71E+12,2,3.375416285,296.2601294,2934.24564,-1,-1
1.71E+12,2,3.375312328,296.2692425,2934.245892,-1,-1
1.71E+12,2,3.375210538,296.2781661,2934.246099,-1,-1
1.71E+12,2,3.375110919,296.2868999,2934.246259,-1,-1
1.71E+12,2,3.375013476,296.2954435,2934.246375,-1,-1
1.71E+12,2,3.374918211,296.3037966,2934.246444,-1,-1
1.71E+12,2,3.374825125,296.3119591,2934.246471,-1,-1
1.71E+12,2,3.374734217,296.3199311,2934.246457,-1,-1
1.71E+12,2,3.374645484,296.3277128,2934.246406,-1,-1
1.71E+12,2,3.374558924,296.3353043,2934.246319,-1,-1
1.71E+12,2,3.37447454,296.3427054,2934.246198,-1,-1
1.71E+12,2,3.374392333,296.349916,2934.246045,-1,-1
1.71E+12,2,3.374312305,296.3569358,2934.245862,-1,-1
1.71E+12,2,3.374234458,296.3637646,2934.245649,-1,-1
1.71E+12,2,3.374158795,296.3704021,2934.245408,-1,-1
1.71E+12,2,3.37408532,296.3768481,2934.24514,-1,-1
1.71E+12,2,3.374014036,296.3831021,2934.244847,-1,-1
1.71E+12,2,3.373944946,296.3891638,2934.244531,-1,-1
1.71E+12,2,3.373878053,296.395033,2934.244197,-1,-1
1.71E+12,2,3.37381336,296.4007096,2934.243846,-1,-1
1.71E+12,2,3.37375087,296.406193,2934.243479,-1,-1
1.71E+12,2,3.373690585,296.4114831,2934.243098,-1,-1
1.71E+12,2,3.373632504,296.41658,2934.242704,-1,-1
1.71E+12,2,3.373576625,296.4214838,2934.2423,-1,-1
1.71E+12,2,3.373522948,296.4261946,2934.241887,-1,-1
1.71E+12,2,3.373471472,296.4307124,2934.241471,-1,-1
1.71E+12,2,3.373422195,296.4350372,2934.241052,-1,-1
1.71E+12,2,3.37337512,296.439169,2934.240633,-1,-1
1.71E+12,2,3.373330245,296.4431077,2934.240214,-1,-1
1.71E+12,2,3.373287572,296.4468533,2934.239801,-1,-1
1.71E+12,2,3.373247102,296.4504057,2934.239392,-1,-1
1.71E+12,2,3.373208833,296.4537649,2934.238989,-1,-1
1.71E+12,2,3.373172764,296.4569311,2934.238592,-1,-1
1.71E+12,2,3.373138891,296.4599045,2934.238203,-1,-1
1.71E+12,2,3.37310721,296.4626856,2934.237821,-1,-1
1.71E+12,2,3.373077713,296.4652749,2934.23745,-1,-1
1.71E+12,2,3.373050393,296.4676733,2934.237089,-1,-1
1.71E+12,2,3.373025244,296.469881,2934.236741,-1,-1
1.71E+12,2,3.373002262,296.4718986,2934.236403,-1,-1
1.71E+12,2,3.372981441,296.4737264,2934.236079,-1,-1
1.71E+12,2,3.372962773,296.4753652,2934.235772,-1,-1
1.71E+12,2,3.372946245,296.4768161,2934.235482,-1,-1
1.71E+12,2,3.372931844,296.4780802,2934.23521,-1,-1
1.71E+12,2,3.37291956,296.4791585,2934.234957,-1,-1
1.71E+12,2,3.372909381,296.480052,2934.234723,-1,-1
1.71E+12,2,3.372901298,296.4807613,2934.234511,-1,-1
1.71E+12,2,3.372895304,296.4812873,2934.23432,-1,-1
1.71E+12,2,3.372891383,296.4816312,2934.23415,-1,-1
1.71E+12,2,3.372889521,296.4817943,2934.234002,-1,-1
1.71E+12,2,3.372889704,296.4817777,2934.233875,-1,-1
1.71E+12,2,3.372891917,296.481583,2934.233769,-1,-1
1.71E+12,2,3.372896142,296.4812115,2934.23368,-1,-1
1.71E+12,2,3.372902359,296.4806651,2934.233608,-1,-1
1.71E+12,2,3.372910548,296.4799455,2934.233554,-1,-1
1.71E+12,2,3.372920686,296.4790547,2934.23352,-1,-1
1.71E+12,2,3.37293275,296.4779947,2934.233502,-1,-1
1.71E+12,2,3.372946717,296.4767676,2934.233501,-1,-1
1.71E+12,2,3.372962562,296.4753756,2934.233516,-1,-1
1.71E+12,2,3.372980258,296.473821,2934.233547,-1,-1
1.71E+12,2,3.372999779,296.4721061,2934.233594,-1,-1
1.71E+12,2,3.373021097,296.4702334,2934.233655,-1,-1
1.71E+12,2,3.373044186,296.4682051,2934.233729,-1,-1
1.71E+12,2,3.373069018,296.4660238,2934.233816,-1,-1
1.71E+12,2,3.373095563,296.463692,2934.233914,-1,-1
1.71E+12,2,3.373123795,296.461212,2934.234023,-1,-1
1.71E+12,2,3.373153685,296.4585865,2934.234142,-1,-1
1.71E+12,2,3.373185202,296.455818,2934.23427,-1,-1
1.71E+12,2,3.373218317,296.4529092,2934.234405,-1,-1
1.71E+12,2,3.373252997,296.449863,2934.234546,-1,-1
1.71E+12,2,3.373289205,296.4466827,2934.234692,-1,-1
1.71E+12,2,3.373326903,296.4433715,2934.234839,-1,-1
1.71E+12,2,3.373366056,296.4399325,2934.234989,-1,-1
1.71E+12,2,3.373406631,296.4363687,2934.235141,-1,-1
1.71E+12,2,3.373448593,296.432683,2934.235293,-1,-1
1.71E+12,2,3.373491908,296.4288786,2934.235444,-1,-1
1.71E+12,2,3.373536536,296.424959,2934.235591,-1,-1
1.71E+12,2,3.373582436,296.4209276,2934.235735,-1,-1
1.71E+12,2,3.373629568,296.4167881,2934.235873,-1,-1
1.71E+12,2,3.373677887,296.4125444,2934.236004,-1,-1
1.71E+12,2,3.373727349,296.4082004,2934.236129,-1,-1
1.71E+12,2,3.373777915,296.4037596,2934.236246,-1,-1
1.71E+12,2,3.373829547,296.3992251,2934.236355,-1,-1
1.71E+12,2,3.37388221,296.3946002,2934.236455,-1,-1
1.71E+12,2,3.373935862,296.3898884,2934.236543,-1,-1
1.71E+12,2,3.373990465,296.3850933,2934.23662,-1,-1
1.71E+12,2,3.374045978,296.3802183,2934.236683,-1,-1
1.71E+12,2,3.374102364,296.3752668,2934.236733,-1,-1
1.71E+12,2,3.374159586,296.3702419,2934.236768,-1,-1
1.71E+12,2,3.374217607,296.3651469,2934.23679,-1,-1
1.71E+12,2,3.374276387,296.3599854,2934.236798,-1,-1
1.71E+12,2,3.374335889,296.3547607,2934.236791,-1,-1
1.71E+12,2,3.374396074,296.3494759,2934.236768,-1,-1
1.71E+12,2,3.374456908,296.3441345,2934.236731,-1,-1
1.71E+12,2,3.374518355,296.3387392,2934.236677,-1,-1
1.71E+12,2,3.374580381,296.3332933,2934.236605,-1,-1
1.71E+12,2,3.374642951,296.3277997,2934.236515,-1,-1
1.71E+12,2,3.374706028,296.3222617,2934.236405,-1,-1
1.71E+12,2,3.374769581,296.316682,2934.236276,-1,-1
1.71E+12,2,3.374833579,296.3110633,2934.236129,-1,-1
1.71E+12,2,3.374897993,296.3054084,2934.235964,-1,-1
1.71E+12,2,3.374962791,296.2997199,2934.235781,-1,-1
1.71E+12,2,3.375027939,296.2940007,2934.235582,-1,-1
1.71E+12,2,3.375093407,296.2882537,2934.235364,-1,-1
1.71E+12,2,3.375159164,296.2824814,2934.235128,-1,-1
1.71E+12,2,3.375225182,296.2766864,2934.234875,-1,-1
1.71E+12,2,3.375291434,296.2708709,2934.234604,-1,-1
1.71E+12,2,3.375357896,296.2650373,2934.234317,-1,-1
1.71E+12,2,3.375424542,296.2591876,2934.234014,-1,-1
1.71E+12,2,3.375491351,296.2533237,2934.233697,-1,-1
1.71E+12,2,3.375558302,296.2474476,2934.233366,-1,-1
1.71E+12,2,3.375625372,296.2415613,2934.23302,-1,-1
1.71E+12,2,3.375692541,296.2356665,2934.232662,-1,-1
1.71E+12,2,3.375759788,296.2297649,2934.232291,-1,-1
1.71E+12,2,3.375827099,296.223858,2934.23191,-1,-1
1.71E+12,2,3.375894459,296.2179469,2934.231518,-1,-1
1.71E+12,2,3.375961852,296.2120331,2934.231115,-1,-1
1.71E+12,2,3.376029265,296.2061178,2934.230699,-1,-1
1.71E+12,2,3.37609668,296.2002025,2934.230271,-1,-1
1.71E+12,2,3.37616408,296.1942888,2934.22983,-1,-1
1.71E+12,2,3.376231453,296.1883776,2934.229377,-1,-1
1.71E+12,2,3.376298791,296.1824697,2934.228914,-1,-1
1.71E+12,2,3.376366083,296.1765661,2934.228441,-1,-1
1.71E+12,2,3.376433323,296.1706672,2934.227958,-1,-1
1.71E+12,2,3.376500505,296.1647736,2934.227464,-1,-1
1.71E+12,2,3.376567624,296.1588858,2934.226958,-1,-1
1.71E+12,2,3.376634674,296.1530043,2934.226443,-1,-1
1.71E+12,2,3.376701651,296.1471294,2934.225918,-1,-1
1.71E+12,2,3.376768548,296.1412618,2934.225386,-1,-1
1.71E+12,2,3.376835357,296.1354021,2934.224847,-1,-1
1.71E+12,2,3.376902075,296.1295507,2934.224302,-1,-1
1.71E+12,2,3.376968702,296.1237075,2934.223751,-1,-1
1.71E+12,2,3.377035237,296.1178726,2934.223197,-1,-1
1.71E+12,2,3.377101688,296.1120454,2934.222639,-1,-1
1.71E+12,2,3.377168062,296.1062251,2934.222078,-1,-1
1.71E+12,2,3.377234369,296.100411,2934.221513,-1,-1
1.71E+12,2,3.377300618,296.0946023,2934.220945,-1,-1
1.71E+12,2,3.377366816,296.0887982,2934.220372,-1,-1
1.71E+12,2,3.377432972,296.0829981,2934.219799,-1,-1
1.71E+12,2,3.377499096,296.0772011,2934.219228,-1,-1
1.71E+12,2,3.377565199,296.0714063,2934.218658,-1,-1
1.71E+12,2,3.377631293,296.0656124,2934.218091,-1,-1
1.71E+12,2,3.377697395,296.0598182,2934.217527,-1,-1
1.71E+12,2,3.377763518,296.0540224,2934.216966,-1,-1
1.71E+12,2,3.377829677,296.0482237,2934.216406,-1,-1
1.71E+12,2,3.377895883,296.0424212,2934.215849,-1,-1
1.71E+12,2,3.37796215,296.0366136,2934.215297,-1,-1
1.71E+12,2,3.378028494,296.0307996,2934.21475,-1,-1
1.71E+12,2,3.37809493,296.0249778,2934.214206,-1,-1
1.71E+12,2,3.378161477,296.0191466,2934.213666,-1,-1
1.71E+12,2,3.378228148,296.0133048,2934.213133,-1,-1
1.71E+12,2,3.378294957,296.0074513,2934.212605,-1,-1
1.71E+12,2,3.378361917,296.0015848,2934.212081,-1,-1
1.71E+12,2,3.378429038,295.9957045,2934.211565,-1,-1
1.71E+12,2,3.378496332,295.9898095,2934.211055,-1,-1
1.71E+12,2,3.378563811,295.9838984,2934.210547,-1,-1
1.71E+12,2,3.378631492,295.97797,2934.210042,-1,-1
1.71E+12,2,3.378699396,295.9720225,2934.209545,-1,-1
1.71E+12,2,3.378767542,295.966054,2934.209053,-1,-1
1.71E+12,2,3.378835947,295.9600631,2934.208566,-1,-1
1.71E+12,2,3.378904632,295.9540482,2934.208084,-1,-1
1.71E+12,2,3.378973615,295.9480074,2934.207611,-1,-1
1.71E+12,2,3.379042914,295.9419393,2934.207144,-1,-1
1.71E+12,2,3.379112544,295.9358425,2934.206685,-1,-1
1.71E+12,2,3.379182526,295.9297153,2934.206239,-1,-1
1.71E+12,2,3.379252878,295.923556,2934.205803,-1,-1
1.71E+12,2,3.379323619,295.917363,2934.205374,-1,-1
1.71E+12,2,3.379394771,295.9111344,2934.204951,-1,-1
1.71E+12,2,3.379466355,295.9048682,2934.204536,-1,-1
1.71E+12,2,3.379538392,295.8985628,2934.204126,-1,-1
1.71E+12,2,3.379610897,295.8922168,2934.203722,-1,-1
1.71E+12,2,3.379683889,295.8858285,2934.203327,-1,-1
1.71E+12,2,3.379757386,295.8793964,2934.202939,-1,-1
1.71E+12,2,3.379831403,295.8729191,2934.202554,-1,-1
1.71E+12,2,3.379905961,295.8663948,2934.202176,-1,-1
1.71E+12,2,3.379981081,295.8598218,2934.201809,-1,-1
1.71E+12,2,3.380056781,295.8531983,2934.201449,-1,-1
1.71E+12,2,3.380133079,295.846523,2934.201095,-1,-1
1.71E+12,2,3.38020999,295.8397943,2934.20075,-1,-1
1.71E+12,2,3.38028753,295.8330111,2934.200415,-1,-1
1.71E+12,2,3.380365713,295.8261719,2934.200084,-1,-1
1.71E+12,2,3.380444552,295.8192758,2934.199757,-1,-1
1.71E+12,2,3.380524059,295.8123217,2934.199435,-1,-1
1.71E+12,2,3.380604247,295.8053083,2934.199117,-1,-1
1.71E+12,2,3.380685135,295.7982341,2934.1988,-1,-1
1.71E+12,2,3.380766739,295.7910977,2934.198486,-1,-1
1.71E+12,2,3.380849075,295.7838977,2934.198178,-1,-1
1.71E+12,2,3.380932157,295.7766329,2934.197872,-1,-1
1.71E+12,2,3.381015998,295.7693021,2934.197564,-1,-1
1.71E+12,2,3.381100611,295.7619042,2934.197259,-1,-1
1.71E+12,2,3.381186006,295.7544384,2934.196956,-1,-1
1.71E+12,2,3.381272193,295.7469038,2934.196653,-1,-1
1.71E+12,2,3.381359182,295.7392994,2934.196347,-1,-1
1.71E+12,2,3.381446989,295.7316241,2934.196042,-1,-1
1.71E+12,2,3.381535626,295.7238766,2934.195736,-1,-1
1.71E+12,2,3.3816251,295.7160563,2934.195425,-1,-1
1.71E+12,2,3.381715415,295.708163,2934.195113,-1,-1
1.71E+12,2,3.381806574,295.7001964,2934.194803,-1,-1
1.71E+12,2,3.381898582,295.692156,2934.194488,-1,-1
1.71E+12,2,3.381991445,295.6840414,2934.194169,-1,-1
1.71E+12,2,3.382085172,295.6758518,2934.193846,-1,-1
1.71E+12,2,3.382179764,295.667587,2934.193518,-1,-1
1.71E+12,2,3.382275222,295.659247,2934.193183,-1,-1
1.71E+12,2,3.382371548,295.6508317,2934.192844,-1,-1
1.71E+12,2,3.382468745,295.6423408,2934.192505,-1,-1
1.71E+12,2,3.382566816,295.6337739,2934.192163,-1,-1
1.71E+12,2,3.382665764,295.625131,2934.191816,-1,-1
1.71E+12,2,3.382765589,295.616412,2934.191469,-1,-1
1.71E+12,2,3.382866288,295.6076171,2934.191121,-1,-1
1.71E+12,2,3.382967866,295.5987459,2934.190766,-1,-1
1.71E+12,2,3.38307033,295.589798,2934.190406,-1,-1
1.71E+12,2,3.383173678,295.5807733,2934.190043,-1,-1
1.71E+12,2,3.383277909,295.5716721,2934.189676,-1,-1
1.71E+12,2,3.383383021,295.5624944,2934.189303,-1,-1
1.71E+12,2,3.38348901,295.5532406,2934.188928,-1,-1
1.71E+12,2,3.383595872,295.5439113,2934.188556,-1,-1
1.71E+12,2,3.383703599,295.534507,2934.188182,-1,-1
1.71E+12,2,3.383812182,295.5250284,2934.187806,-1,-1
1.71E+12,2,3.383921617,295.5154761,2934.187431,-1,-1
1.71E+12,2,3.384031899,295.5058504,2934.187058,-1,-1
1.71E+12,2,3.384143024,295.4961518,2934.186683,-1,-1
1.71E+12,2,3.384254985,295.4863807,2934.186307,-1,-1
1.71E+12,2,3.384367775,295.476538,2934.185935,-1,-1
1.71E+12,2,3.384481387,295.466624,2934.185561,-1,-1
1.71E+12,2,3.384595816,295.4566394,2934.185185,-1,-1
1.71E+12,2,3.384711055,295.4465848,2934.18481,-1,-1
1.71E+12,2,3.384827095,295.4364609,2934.184439,-1,-1
1.71E+12,2,3.384943926,295.4262685,2934.184067,-1,-1
1.71E+12,2,3.385061538,295.4160087,2934.183693,-1,-1
1.71E+12,2,3.385179919,295.4056825,2934.183323,-1,-1
1.71E+12,2,3.385299053,295.3952912,2934.182956,-1,-1
1.71E+12,2,3.385418928,295.384836,2934.182591,-1,-1
1.71E+12,2,3.385539532,295.3743179,2934.182231,-1,-1
1.71E+12,2,3.385660857,295.3637376,2934.181881,-1,-1
1.71E+12,2,3.385782893,295.3530959,2934.181538,-1,-1
1.71E+12,2,3.385905633,295.3423935,2934.181201,-1,-1
1.71E+12,2,3.386029067,295.3316314,2934.180875,-1,-1
1.71E+12,2,3.386153184,295.3208103,2934.180563,-1,-1
1.71E+12,2,3.386277976,295.3099312,2934.180261,-1,-1
1.71E+12,2,3.386403433,295.2989948,2934.179971,-1,-1
1.71E+12,2,3.386529545,295.288002,2934.179696,-1,-1
1.71E+12,2,3.386656298,295.2769542,2934.179435,-1,-1
1.71E+12,2,3.386783682,295.265852,2934.179185,-1,-1
1.71E+12,2,3.386911687,295.2546965,2934.178952,-1,-1
1.71E+12,2,3.387040304,295.2434884,2934.178739,-1,-1
1.71E+12,2,3.387169524,295.2322285,2934.178542,-1,-1
1.71E+12,2,3.387299332,295.2209183,2934.178359,-1,-1
1.71E+12,2,3.38742971,295.2095591,2934.178195,-1,-1
1.71E+12,2,3.387560648,295.1981519,2934.17805,-1,-1
1.71E+12,2,3.387692134,295.1866978,2934.177921,-1,-1
1.71E+12,2,3.387824152,295.1751982,2934.177811,-1,-1
1.71E+12,2,3.387956689,295.1636541,2934.177725,-1,-1
1.71E+12,2,3.388089736,295.1520665,2934.177659,-1,-1
1.71E+12,2,3.388223278,295.1404366,2934.177611,-1,-1
1.71E+12,2,3.388357305,295.1287653,2934.177585,-1,-1
1.71E+12,2,3.388491805,295.1170538,2934.177585,-1,-1
1.71E+12,2,3.388626762,295.1053032,2934.177608,-1,-1
1.71E+12,2,3.388762165,295.0935148,2934.177655,-1,-1
1.71E+12,2,3.388898001,295.0816894,2934.17773,-1,-1
1.71E+12,2,3.389034263,295.0698279,2934.177831,-1,-1
1.71E+12,2,3.389170942,295.0579309,2934.177957,-1,-1
1.71E+12,2,3.389308028,295.0459994,2934.178113,-1,-1
1.71E+12,2,3.389445509,295.0340345,2934.178303,-1,-1
1.71E+12,2,3.389583372,295.0220371,2934.178522,-1,-1
1.71E+12,2,3.389721605,295.0100086,2934.178767,-1,-1
1.71E+12,2,3.389860192,294.9979501,2934.179043,-1,-1
1.71E+12,2,3.389999121,294.9858628,2934.17935,-1,-1
1.71E+12,2,3.390138377,294.9737479,2934.179684,-1,-1
1.71E+12,2,3.390277945,294.9616068,2934.180045,-1,-1
1.71E+12,2,3.390417812,294.9494406,2934.180437,-1,-1
1.71E+12,2,3.39055797,294.9372501,2934.180858,-1,-1
1.71E+12,2,3.390698409,294.925036,2934.181303,-1,-1
1.71E+12,2,3.390839114,294.9127997,2934.181776,-1,-1
1.71E+12,2,3.390980071,294.9005425,2934.182279,-1,-1
1.71E+12,2,3.391121266,294.8882655,2934.182809,-1,-1
1.71E+12,2,3.391262685,294.87597,2934.183363,-1,-1
1.71E+12,2,3.391404315,294.8636571,2934.183947,-1,-1
1.71E+12,2,3.391546144,294.8513278,2934.184563,-1,-1
1.71E+12,2,3.391688162,294.8389831,2934.185207,-1,-1
1.71E+12,2,3.391830354,294.8266242,2934.185878,-1,-1
1.71E+12,2,3.391972708,294.8142522,2934.18658,-1,-1
1.71E+12,2,3.392115208,294.8018684,2934.18731,-1,-1
1.71E+12,2,3.392257833,294.7894747,2934.188065,-1,-1
1.71E+12,2,3.392400568,294.7770723,2934.188851,-1,-1
1.71E+12,2,3.392543398,294.7646628,2934.189669,-1,-1
1.71E+12,2,3.392686307,294.7522472,2934.190515,-1,-1
1.71E+12,2,3.392829282,294.7398269,2934.191387,-1,-1
1.71E+12,2,3.392972308,294.727403,2934.192288,-1,-1
1.71E+12,2,3.393115366,294.7149774,2934.193218,-1,-1
1.71E+12,2,3.39325844,294.7025513,2934.194174,-1,-1
1.71E+12,2,3.393401511,294.6901263,2934.195154,-1,-1
1.71E+12,2,3.393544562,294.6777041,2934.196162,-1,-1
1.71E+12,2,3.393687573,294.6652862,2934.197192,-1,-1
1.71E+12,2,3.393830525,294.6528744,2934.198243,-1,-1
1.71E+12,2,3.393973403,294.64047,2934.199316,-1,-1
1.71E+12,2,3.394116186,294.6280746,2934.200414,-1,-1
1.71E+12,2,3.394258858,294.6156899,2934.20153,-1,-1
1.71E+12,2,3.394401395,294.6033177,2934.202663,-1,-1
1.71E+12,2,3.394543774,294.5909602,2934.203816,-1,-1
1.71E+12,2,3.394685969,294.5786196,2934.204987,-1,-1
1.71E+12,2,3.394827953,294.5662982,2934.206169,-1,-1
1.71E+12,2,3.394969701,294.553998,2934.207363,-1,-1
1.71E+12,2,3.395111191,294.5417212,2934.208573,-1,-1
1.71E+12,2,3.395252398,294.5294699,2934.209794,-1,-1
1.71E+12,2,3.395393297,294.517246,2934.211024,-1,-1
1.71E+12,2,3.395533862,294.5050519,2934.212267,-1,-1
1.71E+12,2,3.395674069,294.4928898,2934.213525,-1,-1
1.71E+12,2,3.395813891,294.4807619,2934.214794,-1,-1
1.71E+12,2,3.3959533,294.4686707,2934.216068,-1,-1
1.71E+12,2,3.396092264,294.4566188,2934.217353,-1,-1
1.71E+12,2,3.396230756,294.4446087,2934.218648,-1,-1
1.71E+12,2,3.396368749,294.4326426,2934.219949,-1,-1
1.71E+12,2,3.396506218,294.4207228,2934.221257,-1,-1
1.71E+12,2,3.396643133,294.4088517,2934.222572,-1,-1
1.71E+12,2,3.396779463,294.3970321,2934.22389,-1,-1
1.71E+12,2,3.396915179,294.3852665,2934.225208,-1,-1
1.71E+12,2,3.397050247,294.3735578,2934.226528,-1,-1
1.71E+12,2,3.397184633,294.3619089,2934.227854,-1,-1
1.71E+12,2,3.397318307,294.3503226,2934.22918,-1,-1
1.71E+12,2,3.397451237,294.3388014,2934.230503,-1,-1
1.71E+12,2,3.397583396,294.3273476,2934.231826,-1,-1
1.71E+12,2,3.397714754,294.315964,2934.233145,-1,-1
1.71E+12,2,3.397845278,294.3046533,2934.234455,-1,-1
1.71E+12,2,3.397974938,294.2934181,2934.235758,-1,-1
1.71E+12,2,3.398103698,294.2822616,2934.237058,-1,-1
1.71E+12,2,3.398231524,294.2711866,2934.238351,-1,-1
1.71E+12,2,3.398358381,294.2601962,2934.239632,-1,-1
1.71E+12,2,3.398484239,294.2492929,2934.240904,-1,-1
1.71E+12,2,3.398609069,294.2384794,2934.242168,-1,-1
1.71E+12,2,3.398732839,294.2277582,2934.243419,-1,-1
1.71E+12,2,3.398855517,294.2171321,2934.244658,-1,-1
1.71E+12,2,3.398977072,294.2066039,2934.245885,-1,-1
1.71E+12,2,3.399097471,294.1961763,2934.247097,-1,-1
1.71E+12,2,3.399216677,294.1858526,2934.248289,-1,-1
1.71E+12,2,3.399334654,294.1756358,2934.249467,-1,-1
1.71E+12,2,3.39945137,294.1655288,2934.250632,-1,-1
1.71E+12,2,3.399566791,294.1555344,2934.251778,-1,-1
1.71E+12,2,3.399680887,294.1456552,2934.252902,-1,-1
1.71E+12,2,3.39979363,294.1358936,2934.254006,-1,-1
1.71E+12,2,3.399904987,294.1262524,2934.255087,-1,-1
1.71E+12,2,3.400014929,294.1167342,2934.256139,-1,-1
1.71E+12,2,3.400123423,294.1073419,2934.257164,-1,-1
1.71E+12,2,3.400230433,294.0980784,2934.258162,-1,-1
1.71E+12,2,3.400335929,294.0889464,2934.259128,-1,-1
1.71E+12,2,3.400439882,294.0799482,2934.26006,-1,-1
1.71E+12,2,3.400542267,294.0710863,2934.260959,-1,-1
1.71E+12,2,3.400643054,294.062363,2934.261827,-1,-1
1.71E+12,2,3.400742217,294.0537806,2934.262657,-1,-1
1.71E+12,2,3.400839728,294.0453415,2934.26345,-1,-1
1.71E+12,2,3.400935558,294.0370482,2934.264209,-1,-1
1.71E+12,2,3.40102968,294.0289031,2934.26493,-1,-1
1.71E+12,2,3.401122072,294.020908,2934.265613,-1,-1
1.71E+12,2,3.401212709,294.013065,2934.26626,-1,-1
1.71E+12,2,3.40130157,294.0053761,2934.26687,-1,-1
1.71E+12,2,3.401388637,293.9978426,2934.267439,-1,-1
1.71E+12,2,3.401473894,293.990466,2934.267968,-1,-1
1.71E+12,2,3.401557321,293.9832479,2934.268459,-1,-1
1.71E+12,2,3.401638897,293.9761903,2934.268911,-1,-1
1.71E+12,2,3.401718604,293.9692945,2934.269319,-1,-1
1.71E+12,2,3.401796423,293.9625623,2934.269687,-1,-1
1.71E+12,2,3.401872336,293.9559952,2934.270015,-1,-1
1.71E+12,2,3.401946327,293.9495946,2934.270299,-1,-1
1.71E+12,2,3.40201838,293.9433618,2934.270538,-1,-1
1.71E+12,2,3.402088483,293.9372978,2934.270736,-1,-1
1.71E+12,2,3.402156627,293.9314034,2934.27089,-1,-1
1.71E+12,2,3.402222803,293.9256795,2934.270998,-1,-1
1.71E+12,2,3.402287002,293.9201266,2934.27106,-1,-1
1.71E+12,2,3.402349215,293.9147457,2934.27108,-1,-1
1.71E+12,2,3.402409428,293.9095379,2934.271052,-1,-1
1.71E+12,2,3.402467633,293.9045038,2934.270975,-1,-1
1.71E+12,2,3.402523826,293.8996439,2934.270853,-1,-1
1.71E+12,2,3.402578002,293.8949585,2934.270684,-1,-1
1.71E+12,2,3.402630157,293.8904481,2934.270466,-1,-1
1.71E+12,2,3.402680286,293.8861128,2934.270199,-1,-1
1.71E+12,2,3.402728383,293.8819534,2934.269888,-1,-1
1.71E+12,2,3.402774443,293.8779702,2934.26953,-1,-1
1.71E+12,2,3.40281846,293.8741637,2934.269125,-1,-1
1.71E+12,2,3.402860433,293.870534,2934.268676,-1,-1
1.71E+12,2,3.402900358,293.8670815,2934.268184,-1,-1
1.71E+12,2,3.40293824,293.8638057,2934.267647,-1,-1
1.71E+12,2,3.402974082,293.8607063,2934.267066,-1,-1
1.71E+12,2,3.403007892,293.8577826,2934.266448,-1,-1
1.71E+12,2,3.403039676,293.8550341,2934.265791,-1,-1
1.71E+12,2,3.403069441,293.8524603,2934.265095,-1,-1
1.71E+12,2,3.403097192,293.8500605,2934.264362,-1,-1
1.71E+12,2,3.403122936,293.8478344,2934.263594,-1,-1
1.71E+12,2,3.403146681,293.845781,2934.262788,-1,-1
1.71E+12,2,3.403168438,293.8438995,2934.261947,-1,-1
1.71E+12,2,3.403188216,293.8421891,2934.261074,-1,-1
1.71E+12,2,3.403206027,293.8406489,2934.26017,-1,-1
1.71E+12,2,3.403221883,293.8392775,2934.25923,-1,-1
1.71E+12,2,3.403235803,293.8380736,2934.258258,-1,-1
1.71E+12,2,3.403247801,293.8370358,2934.257256,-1,-1
1.71E+12,2,3.403257889,293.8361631,2934.256222,-1,-1
1.71E+12,2,3.403266082,293.8354542,2934.255157,-1,-1
1.71E+12,2,3.403272399,293.8349075,2934.254064,-1,-1
1.71E+12,2,3.403276862,293.834521,2934.252944,-1,-1
1.71E+12,2,3.40327949,293.8342931,2934.251795,-1,-1
1.71E+12,2,3.403280308,293.8342217,2934.250617,-1,-1
1.71E+12,2,3.403279336,293.834305,2934.249417,-1,-1
1.71E+12,2,3.403276598,293.8345409,2934.248194,-1,-1
1.71E+12,2,3.403272119,293.8349273,2934.246946,-1,-1
1.71E+12,2,3.403265925,293.8354619,2934.245676,-1,-1
1.71E+12,2,3.403258048,293.836142,2934.24439,-1,-1
1.71E+12,2,3.403248515,293.8369652,2934.243084,-1,-1
1.71E+12,2,3.403237356,293.8379289,2934.24176,-1,-1
1.71E+12,2,3.403224604,293.8390302,2934.240423,-1,-1
1.71E+12,2,3.403210295,293.8402661,2934.239074,-1,-1
1.71E+12,2,3.403194462,293.8416337,2934.237711,-1,-1
1.71E+12,2,3.40317714,293.8431301,2934.236337,-1,-1
1.71E+12,2,3.403158358,293.8447525,2934.234957,-1,-1
1.71E+12,2,3.403138152,293.846498,2934.23357,-1,-1
1.71E+12,2,3.403116562,293.8483631,2934.232177,-1,-1
1.71E+12,2,3.403093629,293.8503443,2934.230783,-1,-1
1.71E+12,2,3.403069394,293.8524381,2934.229389,-1,-1
1.71E+12,2,3.403043901,293.8546404,2934.227991,-1,-1
1.71E+12,2,3.403017198,293.8569475,2934.226591,-1,-1
1.71E+12,2,3.402989327,293.8593553,2934.225195,-1,-1
1.71E+12,2,3.402960337,293.86186,2934.223801,-1,-1
1.71E+12,2,3.402930271,293.8644575,2934.222409,-1,-1
1.71E+12,2,3.402899176,293.8671441,2934.221021,-1,-1
1.71E+12,2,3.4028671,293.8699154,2934.219644,-1,-1
1.71E+12,2,3.402834092,293.8727672,2934.218276,-1,-1
1.71E+12,2,3.402800207,293.8756949,2934.216917,-1,-1
1.71E+12,2,3.402765499,293.8786936,2934.215573,-1,-1
1.71E+12,2,3.402730029,293.8817583,2934.214246,-1,-1
1.71E+12,2,3.402693854,293.8848839,2934.212932,-1,-1
1.71E+12,2,3.402657034,293.8880652,2934.211633,-1,-1
1.71E+12,2,3.402619626,293.8912973,2934.210357,-1,-1
1.71E+12,2,3.402581694,293.8945747,2934.2091,-1,-1
1.71E+12,2,3.402543304,293.8978917,2934.207863,-1,-1
1.71E+12,2,3.402504524,293.9012425,2934.206648,-1,-1
1.71E+12,2,3.402465421,293.9046212,2934.205458,-1,-1
1.71E+12,2,3.40242606,293.9080221,2934.204289,-1,-1
1.71E+12,2,3.402386513,293.9114393,2934.203143,-1,-1
1.71E+12,2,3.402346846,293.9148667,2934.202023,-1,-1
1.71E+12,2,3.40230713,293.9182985,2934.200932,-1,-1
1.71E+12,2,3.402267432,293.9217287,2934.199866,-1,-1
1.71E+12,2,3.402227824,293.9251511,2934.19883,-1,-1
1.71E+12,2,3.402188383,293.9285592,2934.197829,-1,-1
1.71E+12,2,3.402149187,293.9319462,2934.196858,-1,-1
1.71E+12,2,3.402110316,293.9353051,2934.195916,-1,-1
1.71E+12,2,3.402071849,293.9386292,2934.195006,-1,-1
1.71E+12,2,3.402033863,293.9419117,2934.194129,-1,-1
1.71E+12,2,3.401996433,293.9451462,2934.193281,-1,-1
1.71E+12,2,3.401959634,293.9483263,2934.192465,-1,-1
1.71E+12,2,3.401923547,293.9514449,2934.191686,-1,-1
1.71E+12,2,3.401888253,293.9544951,2934.190943,-1,-1
1.71E+12,2,3.401853833,293.9574698,2934.190235,-1,-1
1.71E+12,2,3.401820369,293.960362,2934.189568,-1,-1
1.71E+12,2,3.401787946,293.9631644,2934.188944,-1,-1
1.71E+12,2,3.401756644,293.9658699,2934.188357,-1,-1
1.71E+12,2,3.401726544,293.9684717,2934.187809,-1,-1
1.71E+12,2,3.401697725,293.9709629,2934.187307,-1,-1
1.71E+12,2,3.401670268,293.9733365,2934.186848,-1,-1
1.71E+12,2,3.401644254,293.9755855,2934.18643,-1,-1
1.71E+12,2,3.401619767,293.9777027,2934.186052,-1,-1
1.71E+12,2,3.401596889,293.979681,2934.185721,-1,-1
1.71E+12,2,3.401575702,293.9815134,2934.185431,-1,-1
1.71E+12,2,3.401556284,293.983193,2934.185182,-1,-1
1.71E+12,2,3.401538715,293.984713,2934.184976,-1,-1
1.71E+12,2,3.401523071,293.9860669,2934.184814,-1,-1
1.71E+12,2,3.401509432,293.9872476,2934.184689,-1,-1
1.71E+12,2,3.401497878,293.9882484,2934.184604,-1,-1
1.71E+12,2,3.401488488,293.9890624,2934.184562,-1,-1
1.71E+12,2,3.401481339,293.9896831,2934.184562,-1,-1
1.71E+12,2,3.401476506,293.9901038,2934.184599,-1,-1
1.71E+12,2,3.401474063,293.9903182,2934.184677,-1,-1
1.71E+12,2,3.401474079,293.9903204,2934.184797,-1,-1
1.71E+12,2,3.401476625,293.9901043,2934.184958,-1,-1
1.71E+12,2,3.401481769,293.9896641,2934.185158,-1,-1
1.71E+12,2,3.40148958,293.9889936,2934.1854,-1,-1
1.71E+12,2,3.401500128,293.988087,2934.185683,-1,-1
1.71E+12,2,3.401513476,293.9869388,2934.186003,-1,-1
1.71E+12,2,3.401529683,293.9855439,2934.186358,-1,-1
1.71E+12,2,3.401548808,293.9838973,2934.186753,-1,-1
1.71E+12,2,3.401570908,293.981994,2934.187186,-1,-1
1.71E+12,2,3.401596037,293.9798295,2934.187652,-1,-1
1.71E+12,2,3.401624244,293.9773993,2934.188151,-1,-1
1.71E+12,2,3.401655582,293.9746992,2934.188688,-1,-1
1.71E+12,2,3.401690096,293.9717252,2934.189256,-1,-1
1.71E+12,2,3.401727833,293.9684731,2934.189855,-1,-1
1.71E+12,2,3.401768837,293.9649393,2934.190486,-1,-1
1.71E+12,2,3.401813149,293.9611203,2934.191148,-1,-1
1.71E+12,2,3.401860806,293.9570128,2934.191836,-1,-1
1.71E+12,2,3.401911836,293.9526145,2934.192548,-1,-1
1.71E+12,2,3.401966266,293.947923,2934.193288,-1,-1
1.71E+12,2,3.40202412,293.9429364,2934.194051,-1,-1
1.71E+12,2,3.402085418,293.937653,2934.194834,-1,-1
1.71E+12,2,3.402150181,293.9320707,2934.195639,-1,-1
1.71E+12,2,3.40221843,293.9261881,2934.196466,-1,-1
1.71E+12,2,3.40229018,293.9200038,2934.19731,-1,-1
1.71E+12,2,3.402365441,293.9135169,2934.198171,-1,-1
1.71E+12,2,3.402444215,293.9067273,2934.199051,-1,-1
1.71E+12,2,3.402526502,293.899635,2934.199949,-1,-1
1.71E+12,2,3.402612299,293.8922404,2934.200861,-1,-1
1.71E+12,2,3.402701601,293.8845438,2934.201791,-1,-1
1.71E+12,2,3.402794403,293.8765458,2934.20274,-1,-1
1.71E+12,2,3.402890696,293.8682471,2934.203703,-1,-1
1.71E+12,2,3.402990469,293.8596486,2934.204677,-1,-1
1.71E+12,2,3.403093708,293.8507518,2934.205664,-1,-1
1.71E+12,2,3.403200395,293.8415581,2934.206663,-1,-1
1.71E+12,2,3.403310507,293.8320696,2934.207671,-1,-1
1.71E+12,2,3.403424017,293.8222886,2934.208687,-1,-1
1.71E+12,2,3.403540893,293.8122179,2934.209715,-1,-1
1.71E+12,2,3.403661101,293.8018605,2934.210748,-1,-1
1.71E+12,2,3.403784604,293.7912195,2934.21178,-1,-1
1.71E+12,2,3.40391136,293.7802987,2934.212815,-1,-1
1.71E+12,2,3.404041328,293.7691016,2934.213855,-1,-1
1.71E+12,2,3.404174462,293.7576323,2934.214895,-1,-1
1.71E+12,2,3.404310713,293.7458948,2934.215932,-1,-1
1.71E+12,2,3.404450026,293.7338941,2934.216968,-1,-1
1.71E+12,2,3.404592346,293.721635,2934.217998,-1,-1
1.71E+12,2,3.404737613,293.7091225,2934.219019,-1,-1
1.71E+12,2,3.404885769,293.6963618,2934.220031,-1,-1
1.71E+12,2,3.405036749,293.6833585,2934.221038,-1,-1
1.71E+12,2,3.405190488,293.6701182,2934.222035,-1,-1
1.71E+12,2,3.405346914,293.6566471,2934.223017,-1,-1
1.71E+12,2,3.405505952,293.6429517,2934.223989,-1,-1
1.71E+12,2,3.405667529,293.6290384,2934.224952,-1,-1
1.71E+12,2,3.405831564,293.6149141,2934.225901,-1,-1
1.71E+12,2,3.405997976,293.6005859,2934.226839,-1,-1
1.71E+12,2,3.406166678,293.5860613,2934.227766,-1,-1
1.71E+12,2,3.406337584,293.5713477,2934.22868,-1,-1
1.71E+12,2,3.406510606,293.5564527,2934.229575,-1,-1
1.71E+12,2,3.406685655,293.541384,2934.230455,-1,-1
1.71E+12,2,3.406862643,293.5261492,2934.231319,-1,-1
1.71E+12,2,3.407041476,293.5107564,2934.232163,-1,-1
1.71E+12,2,3.407222059,293.4952139,2934.232988,-1,-1
1.71E+12,2,3.407404292,293.4795302,2934.233795,-1,-1
1.71E+12,2,3.407588074,293.4637141,2934.234581,-1,-1
1.71E+12,2,3.407773303,293.4477743,2934.235341,-1,-1
1.71E+12,2,3.407959878,293.4317197,2934.236079,-1,-1
1.71E+12,2,3.408147696,293.4155589,2934.236794,-1,-1
1.71E+12,2,3.408336659,293.3993006,2934.237483,-1,-1
1.71E+12,2,3.408526666,293.3829533,2934.238144,-1,-1
1.71E+12,2,3.408717615,293.3665261,2934.238782,-1,-1
1.71E+12,2,3.408909396,293.3500281,2934.239394,-1,-1
1.71E+12,2,3.409101903,293.3334687,2934.239975,-1,-1
1.71E+12,2,3.409295028,293.3168571,2934.240529,-1,-1
1.71E+12,2,3.409488666,293.3002023,2934.241056,-1,-1
1.71E+12,2,3.40968271,293.2835135,2934.241554,-1,-1
1.71E+12,2,3.409877057,293.2667998,2934.242019,-1,-1
1.71E+12,2,3.410071598,293.2500702,2934.242454,-1,-1
1.71E+12,2,3.410266232,293.2333338,2934.242861,-1,-1
1.71E+12,2,3.410460853,293.2165994,2934.243234,-1,-1
1.71E+12,2,3.410655357,293.1998761,2934.243574,-1,-1
1.71E+12,2,3.410849633,293.1831733,2934.243885,-1,-1
1.71E+12,2,3.411043576,293.1665001,2934.244164,-1,-1
1.71E+12,2,3.411237085,293.1498653,2934.244406,-1,-1
1.71E+12,2,3.411430053,293.1332779,2934.244614,-1,-1
1.71E+12,2,3.411622378,293.1167468,2934.244789,-1,-1
1.71E+12,2,3.411813958,293.1002807,2934.244926,-1,-1
1.71E+12,2,3.412004692,293.0838882,2934.245026,-1,-1
1.71E+12,2,3.412194481,293.067578,2934.245091,-1,-1
1.71E+12,2,3.412383225,293.0513585,2934.245122,-1,-1
1.71E+12,2,3.412570827,293.0352381,2934.245114,-1,-1
1.71E+12,2,3.412757189,293.0192251,2934.245068,-1,-1
1.71E+12,2,3.41294222,293.0033275,2934.244985,-1,-1
1.71E+12,2,3.413125831,292.9875528,2934.244863,-1,-1
1.71E+12,2,3.413307931,292.9719087,2934.244702,-1,-1
1.71E+12,2,3.413488432,292.956403,2934.244505,-1,-1
1.71E+12,2,3.413667245,292.941043,2934.24427,-1,-1
1.71E+12,2,3.413844286,292.9258363,2934.243995,-1,-1
1.71E+12,2,3.414019467,292.9107901,2934.24368,-1,-1
1.71E+12,2,3.414192703,292.8959118,2934.243327,-1,-1
1.71E+12,2,3.414363916,292.8812081,2934.242935,-1,-1
1.71E+12,2,3.414533028,292.8666855,2934.242502,-1,-1
1.71E+12,2,3.414699969,292.8523503,2934.242034,-1,-1
1.71E+12,2,3.41486467,292.8382081,2934.241532,-1,-1
1.71E+12,2,3.415027066,292.8242646,2934.240992,-1,-1
1.71E+12,2,3.415187094,292.8105252,2934.240416,-1,-1
1.71E+12,2,3.415344693,292.796995,2934.239807,-1,-1
1.71E+12,2,3.415499802,292.7836794,2934.239167,-1,-1
1.71E+12,2,3.415652364,292.7705831,2934.23849,-1,-1
1.71E+12,2,3.415802325,292.7577106,2934.237779,-1,-1
1.71E+12,2,3.415949636,292.7450664,2934.237035,-1,-1
1.71E+12,2,3.416094248,292.7326544,2934.236256,-1,-1
1.71E+12,2,3.416236115,292.7204786,2934.235441,-1,-1
1.71E+12,2,3.416375195,292.7085426,2934.234593,-1,-1
1.71E+12,2,3.416511447,292.6968499,2934.233715,-1,-1
1.71E+12,2,3.41664483,292.6854039,2934.232805,-1,-1
1.71E+12,2,3.416775311,292.6742075,2934.231865,-1,-1
1.71E+12,2,3.416902859,292.6632633,2934.230901,-1,-1
1.71E+12,2,3.417027447,292.6525735,2934.229911,-1,-1
1.71E+12,2,3.417149054,292.6421401,2934.228893,-1,-1
1.71E+12,2,3.41726766,292.6319645,2934.227851,-1,-1
1.71E+12,2,3.417383246,292.6220484,2934.226785,-1,-1
1.71E+12,2,3.417495794,292.6123934,2934.225693,-1,-1
1.71E+12,2,3.417605289,292.6030007,2934.224574,-1,-1
1.71E+12,2,3.417711719,292.5938712,2934.223433,-1,-1
1.71E+12,2,3.417815068,292.5850064,2934.222271,-1,-1
1.71E+12,2,3.417915328,292.576407,2934.221087,-1,-1
1.71E+12,2,3.418012494,292.5680732,2934.219884,-1,-1
1.71E+12,2,3.418106565,292.5600051,2934.218667,-1,-1
1.71E+12,2,3.418197542,292.5522027,2934.217431,-1,-1
1.71E+12,2,3.418285426,292.5446658,2934.216175,-1,-1
1.71E+12,2,3.418370224,292.5373938,2934.214904,-1,-1
1.71E+12,2,3.418451946,292.5303858,2934.213622,-1,-1
1.71E+12,2,3.418530603,292.5236409,2934.212325,-1,-1
1.71E+12,2,3.418606207,292.5171579,2934.211017,-1,-1
1.71E+12,2,3.418678774,292.5109356,2934.209701,-1,-1
1.71E+12,2,3.41874832,292.5049724,2934.208376,-1,-1
1.71E+12,2,3.418814863,292.4992668,2934.20704,-1,-1
1.71E+12,2,3.418878424,292.493817,2934.205697,-1,-1
1.71E+12,2,3.418939022,292.4886214,2934.204349,-1,-1
1.71E+12,2,3.418996681,292.4836779,2934.202994,-1,-1
1.71E+12,2,3.419051424,292.4789844,2934.20163,-1,-1
1.71E+12,2,3.41910328,292.4745385,2934.200264,-1,-1
1.71E+12,2,3.419152277,292.4703377,2934.198895,-1,-1
1.71E+12,2,3.419198449,292.4663792,2934.19752,-1,-1
1.71E+12,2,3.419241829,292.46266,2934.196142,-1,-1
1.71E+12,2,3.419282452,292.4591773,2934.194762,-1,-1
1.71E+12,2,3.419320353,292.4559278,2934.193379,-1,-1
1.71E+12,2,3.419355568,292.4529086,2934.191991,-1,-1
1.71E+12,2,3.419388135,292.4501163,2934.190605,-1,-1
1.71E+12,2,3.419418093,292.4475477,2934.189223,-1,-1
1.71E+12,2,3.419445485,292.4451989,2934.187841,-1,-1
1.71E+12,2,3.419470354,292.4430663,2934.186462,-1,-1
1.71E+12,2,3.419492747,292.4411461,2934.185092,-1,-1
1.71E+12,2,3.41951271,292.4394339,2934.183728,-1,-1
1.71E+12,2,3.419530291,292.4379259,2934.182367,-1,-1
1.71E+12,2,3.419545535,292.436618,2934.181014,-1,-1
1.71E+12,2,3.41955849,292.4355063,2934.179673,-1,-1
1.71E+12,2,3.419569201,292.4345868,2934.178342,-1,-1
1.71E+12,2,3.419577716,292.4338554,2934.177021,-1,-1
1.71E+12,2,3.419584085,292.4333079,2934.175716,-1,-1
1.71E+12,2,3.419588356,292.4329401,2934.174427,-1,-1
1.71E+12,2,3.41959058,292.4327476,2934.17315,-1,-1
1.71E+12,2,3.419590811,292.4327258,2934.171887,-1,-1
1.71E+12,2,3.4195891,292.4328703,2934.170641,-1,-1
1.71E+12,2,3.419585497,292.4331768,2934.16941,-1,-1
1.71E+12,2,3.419580054,292.4336409,2934.168193,-1,-1
1.71E+12,2,3.419572823,292.4342582,2934.166996,-1,-1
1.71E+12,2,3.419563853,292.4350243,2934.165819,-1,-1
1.71E+12,2,3.419553198,292.4359348,2934.164659,-1,-1
1.71E+12,2,3.419540914,292.4369847,2934.163518,-1,-1
1.71E+12,2,3.419527058,292.4381693,2934.162397,-1,-1
1.71E+12,2,3.419511684,292.4394838,2934.161296,-1,-1
1.71E+12,2,3.419494841,292.4409241,2934.160211,-1,-1
1.71E+12,2,3.419476575,292.4424862,2934.159148,-1,-1
1.71E+12,2,3.419456933,292.4441662,2934.158109,-1,-1
1.71E+12,2,3.419435966,292.4459596,2934.157092,-1,-1
1.71E+12,2,3.419413724,292.4478621,2934.156097,-1,-1
1.71E+12,2,3.419390262,292.4498691,2934.155128,-1,-1
1.71E+12,2,3.419365634,292.4519759,2934.154186,-1,-1
1.71E+12,2,3.419339894,292.454178,2934.153265,-1,-1
1.71E+12,2,3.41931309,292.4564711,2934.15237,-1,-1
1.71E+12,2,3.419285276,292.4588507,2934.151502,-1,-1
1.71E+12,2,3.419256502,292.4613125,2934.150657,-1,-1
1.71E+12,2,3.419226818,292.4638521,2934.149833,-1,-1
1.71E+12,2,3.419196277,292.4664652,2934.149035,-1,-1
1.71E+12,2,3.41916493,292.4691472,2934.148265,-1,-1
1.71E+12,2,3.419132831,292.4718936,2934.147519,-1,-1
1.71E+12,2,3.419100032,292.4747,2934.146798,-1,-1
1.71E+12,2,3.419066583,292.477562,2934.146108,-1,-1
1.71E+12,2,3.419032532,292.4804756,2934.145447,-1,-1
1.71E+12,2,3.418997923,292.4834369,2934.144813,-1,-1
1.71E+12,2,3.418962805,292.4864417,2934.144209,-1,-1
1.71E+12,2,3.418927225,292.4894862,2934.143636,-1,-1
1.71E+12,2,3.418891231,292.4925661,2934.14309,-1,-1
1.71E+12,2,3.418854869,292.4956774,2934.142567,-1,-1
1.71E+12,2,3.418818183,292.4988166,2934.142073,-1,-1
1.71E+12,2,3.418781214,292.50198,2934.141607,-1,-1
1.71E+12,2,3.418744003,292.5051641,2934.141167,-1,-1
1.71E+12,2,3.418706592,292.5083653,2934.140752,-1,-1
1.71E+12,2,3.418669019,292.5115805,2934.140367,-1,-1
1.71E+12,2,3.418631324,292.5148061,2934.140011,-1,-1
1.71E+12,2,3.418593547,292.5180387,2934.13968,-1,-1
1.71E+12,2,3.418555727,292.521275,2934.139376,-1,-1
1.71E+12,2,3.418517902,292.5245118,2934.139099,-1,-1
1.71E+12,2,3.418480103,292.5277463,2934.138848,-1,-1
1.71E+12,2,3.418442364,292.5309757,2934.138621,-1,-1
1.71E+12,2,3.41840472,292.5341971,2934.138423,-1,-1
1.71E+12,2,3.418367203,292.5374076,2934.138252,-1,-1
1.71E+12,2,3.418329841,292.5406048,2934.138103,-1,-1
1.71E+12,2,3.418292662,292.5437864,2934.137979,-1,-1
1.71E+12,2,3.418255695,292.5469498,2934.13788,-1,-1
1.71E+12,2,3.418218969,292.5500927,2934.137805,-1,-1
1.71E+12,2,3.418182514,292.5532124,2934.13775,-1,-1
1.71E+12,2,3.418146358,292.5563065,2934.137718,-1,-1
1.71E+12,2,3.418110524,292.559373,2934.137707,-1,-1
1.71E+12,2,3.418075037,292.56241,2934.137714,-1,-1
1.71E+12,2,3.418039916,292.5654156,2934.137737,-1,-1
1.71E+12,2,3.418005181,292.5683882,2934.13778,-1,-1
1.71E+12,2,3.417970855,292.5713258,2934.137842,-1,-1
1.71E+12,2,3.417936957,292.5742267,2934.13792,-1,-1
1.71E+12,2,3.417903507,292.5770894,2934.138015,-1,-1
1.71E+12,2,3.417870525,292.579912,2934.138129,-1,-1
1.71E+12,2,3.417838022,292.5826937,2934.138256,-1,-1
1.71E+12,2,3.417806006,292.5854336,2934.138393,-1,-1
1.71E+12,2,3.417774485,292.5881313,2934.138543,-1,-1
1.71E+12,2,3.417743465,292.5907861,2934.138704,-1,-1
1.71E+12,2,3.417712953,292.5933974,2934.138871,-1,-1
1.71E+12,2,3.417682952,292.595965,2934.139046,-1,-1
1.71E+12,2,3.417653467,292.5984885,2934.13923,-1,-1
1.71E+12,2,3.417624502,292.6009674,2934.139418,-1,-1
1.71E+12,2,3.41759606,292.6034017,2934.139605,-1,-1
1.71E+12,2,3.41756814,292.6057913,2934.139794,-1,-1
1.71E+12,2,3.417540737,292.6081366,2934.139987,-1,-1
1.71E+12,2,3.417513845,292.6104382,2934.140177,-1,-1
1.71E+12,2,3.417487456,292.6126969,2934.140365,-1,-1
1.71E+12,2,3.417461562,292.6149131,2934.14055,-1,-1
1.71E+12,2,3.417436158,292.6170875,2934.14073,-1,-1
1.71E+12,2,3.417411236,292.6192206,2934.140903,-1,-1
1.71E+12,2,3.417386786,292.6213134,2934.141072,-1,-1
1.71E+12,2,3.417362798,292.6233667,2934.141241,-1,-1
1.71E+12,2,3.417339255,292.6253819,2934.141405,-1,-1
1.71E+12,2,3.417316139,292.6273606,2934.141559,-1,-1
1.71E+12,2,3.417293428,292.6293046,2934.141709,-1,-1
1.71E+12,2,3.417271103,292.6312156,2934.141854,-1,-1
1.71E+12,2,3.417249147,292.6330952,2934.14199,-1,-1
1.71E+12,2,3.417227537,292.634945,2934.142121,-1,-1
1.71E+12,2,3.417206251,292.6367673,2934.14225,-1,-1
1.71E+12,2,3.417185262,292.6385641,2934.142373,-1,-1
1.71E+12,2,3.417164545,292.6403377,2934.142487,-1,-1
1.71E+12,2,3.417144073,292.6420904,2934.142598,-1,-1
1.71E+12,2,3.417123818,292.6438245,2934.142708,-1,-1
1.71E+12,2,3.417103754,292.6455424,2934.142815,-1,-1
1.71E+12,2,3.417083851,292.6472465,2934.142917,-1,-1
1.71E+12,2,3.417064078,292.6489395,2934.143018,-1,-1
1.71E+12,2,3.417044408,292.6506238,2934.143117,-1,-1
1.71E+12,2,3.417024813,292.6523016,2934.14321,-1,-1
1.71E+12,2,3.417005264,292.6539757,2934.1433,-1,-1
1.71E+12,2,3.41698573,292.6556485,2934.143391,-1,-1
1.71E+12,2,3.416966178,292.6573229,2934.14348,-1,-1
1.71E+12,2,3.416946571,292.6590021,2934.143569,-1,-1
1.71E+12,2,3.416926872,292.6606892,2934.143661,-1,-1
1.71E+12,2,3.416907047,292.6623872,2934.14376,-1,-1
1.71E+12,2,3.416887067,292.6640986,2934.143862,-1,-1
1.71E+12,2,3.416866899,292.6658261,2934.143969,-1,-1
1.71E+12,2,3.416846515,292.6675722,2934.144087,-1,-1
1.71E+12,2,3.416825884,292.6693396,2934.144213,-1,-1
1.71E+12,2,3.416804972,292.6711311,2934.144346,-1,-1
1.71E+12,2,3.416783744,292.6729497,2934.144488,-1,-1
1.71E+12,2,3.416762164,292.6747985,2934.144639,-1,-1
1.71E+12,2,3.416740199,292.6766804,2934.144799,-1,-1
1.71E+12,2,3.416717817,292.6785982,2934.144972,-1,-1
1.71E+12,2,3.416694986,292.6805545,2934.145163,-1,-1
1.71E+12,2,3.416671673,292.6825521,2934.145374,-1,-1
1.71E+12,2,3.416647849,292.6845936,2934.145601,-1,-1
1.71E+12,2,3.416623483,292.6866816,2934.145847,-1,-1
1.71E+12,2,3.416598546,292.6888187,2934.146118,-1,-1
1.71E+12,2,3.416573006,292.6910075,2934.146414,-1,-1
1.71E+12,2,3.416546832,292.6932507,2934.146734,-1,-1
1.71E+12,2,3.416519994,292.6955509,2934.147082,-1,-1
1.71E+12,2,3.416492467,292.6979102,2934.147457,-1,-1
1.71E+12,2,3.416464228,292.7003306,2934.147861,-1,-1
1.71E+12,2,3.416435253,292.7028142,2934.148295,-1,-1
1.71E+12,2,3.416405519,292.7053629,2934.148766,-1,-1
1.71E+12,2,3.416375005,292.7079786,2934.149272,-1,-1
1.71E+12,2,3.416343689,292.710663,2934.149813,-1,-1
1.71E+12,2,3.41631155,292.7134181,2934.150389,-1,-1
1.71E+12,2,3.416278572,292.7162453,2934.151002,-1,-1
1.71E+12,2,3.416244738,292.7191458,2934.15165,-1,-1
1.71E+12,2,3.416210032,292.7221212,2934.152334,-1,-1
1.71E+12,2,3.41617444,292.7251727,2934.15306,-1,-1
1.71E+12,2,3.416137949,292.7283013,2934.153826,-1,-1
1.71E+12,2,3.416100544,292.7315083,2934.154633,-1,-1
1.71E+12,2,3.416062212,292.7347949,2934.155481,-1,-1
1.71E+12,2,3.416022938,292.7381624,2934.15637,-1,-1
1.71E+12,2,3.415982712,292.7416116,2934.157298,-1,-1
1.71E+12,2,3.415941528,292.745143,2934.158265,-1,-1
1.71E+12,2,3.415899382,292.7487569,2934.159273,-1,-1
1.71E+12,2,3.415856277,292.7524533,2934.16032,-1,-1
1.71E+12,2,3.415812213,292.7562319,2934.161404,-1,-1
1.71E+12,2,3.41576719,292.7600929,2934.162525,-1,-1
1.71E+12,2,3.415721205,292.7640365,2934.163684,-1,-1
1.71E+12,2,3.415674253,292.768063,2934.164881,-1,-1
1.71E+12,2,3.415626335,292.7721726,2934.166113,-1,-1
1.71E+12,2,3.415577448,292.7763653,2934.167378,-1,-1
1.71E+12,2,3.415527594,292.7806411,2934.168676,-1,-1
1.71E+12,2,3.415476776,292.7849997,2934.170003,-1,-1
1.71E+12,2,3.415425,292.7894405,2934.171356,-1,-1
1.71E+12,2,3.415372272,292.7939631,2934.172737,-1,-1
1.71E+12,2,3.415318601,292.7985667,2934.174143,-1,-1
1.71E+12,2,3.415263995,292.8032506,2934.175571,-1,-1
1.71E+12,2,3.415208466,292.8080139,2934.177018,-1,-1
1.71E+12,2,3.41515202,292.8128559,2934.178485,-1,-1
1.71E+12,2,3.415094669,292.8177756,2934.179967,-1,-1
1.71E+12,2,3.415036426,292.822772,2934.18146,-1,-1
1.71E+12,2,3.414977305,292.8278438,2934.182961,-1,-1
1.71E+12,2,3.414917324,292.8329896,2934.184467,-1,-1
1.71E+12,2,3.414856496,292.8382082,2934.185972,-1,-1
1.71E+12,2,3.414794831,292.8434987,2934.187474,-1,-1
1.71E+12,2,3.414732341,292.8488601,2934.188974,-1,-1
1.71E+12,2,3.41466904,292.8542912,2934.190471,-1,-1
1.71E+12,2,3.414604943,292.8597909,2934.191959,-1,-1
1.71E+12,2,3.414540068,292.8653573,2934.193438,-1,-1
1.71E+12,2,3.414474438,292.8709888,2934.194905,-1,-1
1.71E+12,2,3.41440807,292.8766838,2934.196359,-1,-1
1.71E+12,2,3.414340986,292.8824403,2934.197797,-1,-1
1.71E+12,2,3.414273207,292.8882565,2934.199218,-1,-1
1.71E+12,2,3.414204757,292.8941306,2934.200619,-1,-1
1.71E+12,2,3.414135653,292.9000609,2934.201994,-1,-1
1.71E+12,2,3.414065918,292.9060457,2934.203342,-1,-1
1.71E+12,2,3.413995571,292.912083,2934.204662,-1,-1
1.71E+12,2,3.413924635,292.9181711,2934.205953,-1,-1
1.71E+12,2,3.413853129,292.9243083,2934.20721,-1,-1
1.71E+12,2,3.413781079,292.9304924,2934.208431,-1,-1
1.71E+12,2,3.413708505,292.9367216,2934.209615,-1,-1
1.71E+12,2,3.413635428,292.9429942,2934.210758,-1,-1
1.71E+12,2,3.413561872,292.9493081,2934.21186,-1,-1
1.71E+12,2,3.413487854,292.9556619,2934.212922,-1,-1
1.71E+12,2,3.413413396,292.9620536,2934.21394,-1,-1
1.71E+12,2,3.413338523,292.9684812,2934.214911,-1,-1
1.71E+12,2,3.41326326,292.9749425,2934.215831,-1,-1
1.71E+12,2,3.413187631,292.9814354,2934.216702,-1,-1
1.71E+12,2,3.413111659,292.9879579,2934.217521,-1,-1
1.71E+12,2,3.413035367,292.9945081,2934.218287,-1,-1
1.71E+12,2,3.412958772,293.0010846,2934.219,-1,-1
1.71E+12,2,3.412881891,293.0076858,2934.21966,-1,-1
1.71E+12,2,3.412804742,293.0143104,2934.220265,-1,-1
1.71E+12,2,3.41272734,293.0209568,2934.220815,-1,-1
1.71E+12,2,3.412649706,293.0276234,2934.221311,-1,-1
1.71E+12,2,3.412571859,293.0343086,2934.221753,-1,-1
1.71E+12,2,3.412493818,293.0410106,2934.222141,-1,-1
1.71E+12,2,3.412415597,293.0477283,2934.222473,-1,-1
1.71E+12,2,3.412337213,293.0544603,2934.222749,-1,-1
1.71E+12,2,3.412258678,293.0612055,2934.222966,-1,-1
1.71E+12,2,3.412180005,293.0679628,2934.223123,-1,-1
1.71E+12,2,3.412101211,293.0747308,2934.223222,-1,-1
1.71E+12,2,3.412022311,293.0815081,2934.223264,-1,-1
1.71E+12,2,3.41194332,293.0882936,2934.223246,-1,-1
1.71E+12,2,3.41186425,293.095086,2934.223169,-1,-1
1.71E+12,2,3.411785117,293.1018841,2934.223035,-1,-1
1.71E+12,2,3.411705934,293.1086868,2934.222845,-1,-1
1.71E+12,2,3.411626714,293.115493,2934.222601,-1,-1
1.71E+12,2,3.411547468,293.1223017,2934.222306,-1,-1
1.71E+12,2,3.411468206,293.129112,2934.221961,-1,-1
1.71E+12,2,3.411388938,293.1359231,2934.221568,-1,-1
1.71E+12,2,3.411309676,293.142734,2934.221129,-1,-1
1.71E+12,2,3.411230431,293.1495437,2934.220646,-1,-1
1.71E+12,2,3.411151213,293.1563513,2934.22012,-1,-1
1.71E+12,2,3.411072033,293.1631561,2934.219553,-1,-1
1.71E+12,2,3.410992897,293.1699573,2934.218949,-1,-1
1.71E+12,2,3.41091381,293.1767545,2934.218307,-1,-1
1.71E+12,2,3.410834776,293.1835476,2934.21763,-1,-1
1.71E+12,2,3.410755797,293.1903361,2934.216921,-1,-1
1.71E+12,2,3.41067688,293.1971197,2934.216181,-1,-1
1.71E+12,2,3.410598034,293.2038974,2934.215412,-1,-1
1.71E+12,2,3.410519267,293.2106686,2934.214619,-1,-1
1.71E+12,2,3.410440587,293.2174327,2934.213802,-1,-1
1.71E+12,2,3.410361998,293.2241893,2934.212965,-1,-1
1.71E+12,2,3.410283503,293.230938,2934.212109,-1,-1
1.71E+12,2,3.410205105,293.2376788,2934.211237,-1,-1
1.71E+12,2,3.410126808,293.2444111,2934.210351,-1,-1
1.71E+12,2,3.41004862,293.2511344,2934.209451,-1,-1
1.71E+12,2,3.409970545,293.2578483,2934.208542,-1,-1
1.71E+12,2,3.409892586,293.2645525,2934.207627,-1,-1
1.71E+12,2,3.409814748,293.2712465,2934.206709,-1,-1
1.71E+12,2,3.409737035,293.2779302,2934.20579,-1,-1
1.71E+12,2,3.409659449,293.2846032,2934.204869,-1,-1
1.71E+12,2,3.409581993,293.2912653,2934.203948,-1,-1
1.71E+12,2,3.409504664,293.2979169,2934.20303,-1,-1
1.71E+12,2,3.409427461,293.3045578,2934.202115,-1,-1
1.71E+12,2,3.409350391,293.3111877,2934.201205,-1,-1
1.71E+12,2,3.409273455,293.3178062,2934.200302,-1,-1
1.71E+12,2,3.409196657,293.3244133,2934.199409,-1,-1
1.71E+12,2,3.409119999,293.3310085,2934.198529,-1,-1
1.71E+12,2,3.409043484,293.3375917,2934.197666,-1,-1
1.71E+12,2,3.408967118,293.3441625,2934.196824,-1,-1
1.71E+12,2,3.408890903,293.3507205,2934.196005,-1,-1
1.71E+12,2,3.408814847,293.3572651,2934.195211,-1,-1
1.71E+12,2,3.408738956,293.3637957,2934.194441,-1,-1
1.71E+12,2,3.408663238,293.3703118,2934.193697,-1,-1
1.71E+12,2,3.408587702,293.3768125,2934.192981,-1,-1
1.71E+12,2,3.408512353,293.3832973,2934.192291,-1,-1
1.71E+12,2,3.408437202,293.3897655,2934.191629,-1,-1
1.71E+12,2,3.408362257,293.3962161,2934.190997,-1,-1
1.71E+12,2,3.408287524,293.4026487,2934.190395,-1,-1
1.71E+12,2,3.408213007,293.409063,2934.189825,-1,-1
1.71E+12,2,3.408138711,293.4154586,2934.189289,-1,-1
1.71E+12,2,3.408064643,293.4218347,2934.188787,-1,-1
1.71E+12,2,3.407990813,293.4281907,2934.18832,-1,-1
1.71E+12,2,3.407917233,293.4345254,2934.18789,-1,-1
1.71E+12,2,3.407843912,293.440838,2934.187494,-1,-1
1.71E+12,2,3.407770862,293.4471274,2934.187134,-1,-1
1.71E+12,2,3.407698096,293.4533927,2934.186809,-1,-1
1.71E+12,2,3.407625622,293.4596331,2934.186519,-1,-1
1.71E+12,2,3.407553447,293.465848,2934.186264,-1,-1
1.71E+12,2,3.407481579,293.4720366,2934.186045,-1,-1
1.71E+12,2,3.407410027,293.4781983,2934.18586,-1,-1
1.71E+12,2,3.407338799,293.4843323,2934.18571,-1,-1
1.71E+12,2,3.407267903,293.4904379,2934.185595,-1,-1
1.71E+12,2,3.407197348,293.4965144,2934.185513,-1,-1
1.71E+12,2,3.40712714,293.5025611,2934.185464,-1,-1
1.71E+12,2,3.407057288,293.5085775,2934.185444,-1,-1
1.71E+12,2,3.4069878,293.5145626,2934.18545,-1,-1
1.71E+12,2,3.406918686,293.5205158,2934.185484,-1,-1
1.71E+12,2,3.406849953,293.5264364,2934.185548,-1,-1
1.71E+12,2,3.406781613,293.5323232,2934.18564,-1,-1
1.71E+12,2,3.406713681,293.5381751,2934.185759,-1,-1
1.71E+12,2,3.40664617,293.5439909,2934.185904,-1,-1
1.71E+12,2,3.406579096,293.5497693,2934.186075,-1,-1
1.71E+12,2,3.406512474,293.5555089,2934.186269,-1,-1
1.71E+12,2,3.406446314,293.5612088,2934.186485,-1,-1
1.71E+12,2,3.406380629,293.566868,2934.186728,-1,-1
1.71E+12,2,3.406315431,293.5724854,2934.186994,-1,-1
1.71E+12,2,3.40625073,293.5780603,2934.187282,-1,-1
1.71E+12,2,3.406186537,293.5835914,2934.187588,-1,-1
1.71E+12,2,3.406122869,293.5890775,2934.187916,-1,-1
1.71E+12,2,3.406059737,293.5945175,2934.188262,-1,-1
1.71E+12,2,3.405997148,293.599911,2934.188623,-1,-1
1.71E+12,2,3.405935112,293.6052569,2934.188996,-1,-1
1.71E+12,2,3.405873638,293.6105545,2934.189377,-1,-1
1.71E+12,2,3.405812733,293.6158032,2934.189764,-1,-1
1.71E+12,2,3.405752407,293.6210022,2934.190156,-1,-1
1.71E+12,2,3.405692672,293.6261504,2934.190554,-1,-1
1.71E+12,2,3.405633541,293.6312468,2934.190956,-1,-1
1.71E+12,2,3.405575023,293.6362903,2934.191357,-1,-1
1.71E+12,2,3.405517122,293.6412809,2934.191755,-1,-1
1.71E+12,2,3.405459842,293.6462181,2934.192149,-1,-1
1.71E+12,2,3.405403188,293.6511014,2934.192539,-1,-1
1.71E+12,2,3.405347167,293.6559303,2934.192921,-1,-1
1.71E+12,2,3.405291783,293.6607045,2934.193294,-1,-1
1.71E+12,2,3.405237043,293.6654232,2934.193656,-1,-1
1.71E+12,2,3.405182959,293.6700856,2934.194003,-1,-1
1.71E+12,2,3.405129534,293.6746912,2934.194332,-1,-1
1.71E+12,2,3.405076772,293.6792399,2934.194646,-1,-1
1.71E+12,2,3.405024675,293.6837313,2934.194941,-1,-1
1.71E+12,2,3.404973244,293.6881654,2934.195215,-1,-1
1.71E+12,2,3.404922476,293.6925425,2934.195468,-1,-1
1.71E+12,2,3.404872372,293.6968624,2934.195699,-1,-1
1.71E+12,2,3.404822932,293.7011252,2934.195906,-1,-1
1.71E+12,2,3.404774158,293.7053307,2934.196085,-1,-1
1.71E+12,2,3.404726054,293.7094786,2934.196239,-1,-1
1.71E+12,2,3.404678622,293.7135687,2934.196364,-1,-1
1.71E+12,2,3.404631863,293.7176008,2934.196455,-1,-1
1.71E+12,2,3.404585776,293.7215751,2934.196512,-1,-1
1.71E+12,2,3.404540358,293.7254918,2934.196538,-1,-1
1.71E+12,2,3.404495604,293.7293513,2934.196529,-1,-1
1.71E+12,2,3.404451509,293.7331541,2934.196482,-1,-1
1.71E+12,2,3.404408071,293.7369004,2934.196402,-1,-1
1.71E+12,2,3.404365286,293.7405904,2934.196291,-1,-1
1.71E+12,2,3.404323152,293.7442244,2934.196146,-1,-1
1.71E+12,2,3.404281669,293.7478024,2934.195965,-1,-1
1.71E+12,2,3.404240832,293.7513247,2934.195754,-1,-1
1.71E+12,2,3.404200635,293.754792,2934.19551,-1,-1
1.71E+12,2,3.404161073,293.7582045,2934.195228,-1,-1
1.71E+12,2,3.404122142,293.7615628,2934.194911,-1,-1
1.71E+12,2,3.404083834,293.7648674,2934.194563,-1,-1
1.71E+12,2,3.404046146,293.7681185,2934.19418,-1,-1
1.71E+12,2,3.404009077,293.7713164,2934.193762,-1,-1
1.71E+12,2,3.403972622,293.7744614,2934.193314,-1,-1
1.71E+12,2,3.403936776,293.7775539,2934.192837,-1,-1
1.71E+12,2,3.403901534,293.7805944,2934.192328,-1,-1
1.71E+12,2,3.403866889,293.7835835,2934.191788,-1,-1
1.71E+12,2,3.403832832,293.7865219,2934.191221,-1,-1
1.71E+12,2,3.403799355,293.7894104,2934.190626,-1,-1
1.71E+12,2,3.403766452,293.7922494,2934.189999,-1,-1
1.71E+12,2,3.40373412,293.7950392,2934.189345,-1,-1
1.71E+12,2,3.403702358,293.7977799,2934.188668,-1,-1
1.71E+12,2,3.403671162,293.8004719,2934.187966,-1,-1
1.71E+12,2,3.403640525,293.8031157,2934.187239,-1,-1
1.71E+12,2,3.403610438,293.8057119,2934.186492,-1,-1
1.71E+12,2,3.403580895,293.8082615,2934.185723,-1,-1
1.71E+12,2,3.403551889,293.8107647,2934.18493,-1,-1
1.71E+12,2,3.403523415,293.813222,2934.184121,-1,-1
1.71E+12,2,3.403495468,293.8156339,2934.1833,-1,-1
1.71E+12,2,3.403468046,293.8180005,2934.182463,-1,-1
1.71E+12,2,3.403441149,293.8203219,2934.181612,-1,-1
1.71E+12,2,3.403414774,293.8225983,2934.180754,-1,-1
1.71E+12,2,3.403388915,293.8248302,2934.17989,-1,-1
1.71E+12,2,3.403363561,293.8270185,2934.179022,-1,-1
1.71E+12,2,3.403338706,293.8291638,2934.178153,-1,-1
1.71E+12,2,3.403314344,293.8312666,2934.177291,-1,-1
1.71E+12,2,3.403290474,293.833327,2934.17643,-1,-1
1.71E+12,2,3.403267095,293.835345,2934.175571,-1,-1
1.71E+12,2,3.40324421,293.8373204,2934.17472,-1,-1
1.71E+12,2,3.403221819,293.8392532,2934.17388,-1,-1
1.71E+12,2,3.403199919,293.8411437,2934.173049,-1,-1
1.71E+12,2,3.403178508,293.8429919,2934.17223,-1,-1
1.71E+12,2,3.403157584,293.8447981,2934.171428,-1,-1
1.71E+12,2,3.403137148,293.8465623,2934.170644,-1,-1
1.71E+12,2,3.403117197,293.8482845,2934.169875,-1,-1
1.71E+12,2,3.403097732,293.8499648,2934.169128,-1,-1
1.71E+12,2,3.403078755,293.8516031,2934.168406,-1,-1
1.71E+12,2,3.403060268,293.853199,2934.167709,-1,-1
1.71E+12,2,3.403042271,293.8547527,2934.167034,-1,-1
1.71E+12,2,3.403024764,293.856264,2934.16639,-1,-1
1.71E+12,2,3.403007747,293.8577331,2934.165775,-1,-1
1.71E+12,2,3.402991218,293.8591601,2934.16519,-1,-1
1.71E+12,2,3.402975178,293.8605447,2934.164637,-1,-1
1.71E+12,2,3.402959631,293.861887,2934.164121,-1,-1
1.71E+12,2,3.402944578,293.8631865,2934.163639,-1,-1
1.71E+12,2,3.402930022,293.8644432,2934.163187,-1,-1
1.71E+12,2,3.402915966,293.8656566,2934.16277,-1,-1
1.71E+12,2,3.402902409,293.866827,2934.162389,-1,-1
1.71E+12,2,3.402889351,293.8679544,2934.16204,-1,-1
1.71E+12,2,3.402876793,293.8690385,2934.161725,-1,-1
1.71E+12,2,3.402864738,293.8700792,2934.161445,-1,-1
1.71E+12,2,3.402853184,293.8710766,2934.161198,-1,-1
1.71E+12,2,3.402842135,293.8720305,2934.160981,-1,-1
1.71E+12,2,3.40283159,293.8729408,2934.160799,-1,-1
1.71E+12,2,3.402821552,293.8738074,2934.160654,-1,-1
1.71E+12,2,3.402812024,293.87463,2934.160543,-1,-1
1.71E+12,2,3.402803005,293.8754085,2934.160465,-1,-1
1.71E+12,2,3.402794495,293.8761431,2934.160425,-1,-1
1.71E+12,2,3.402786493,293.8768339,2934.160421,-1,-1
1.71E+12,2,3.402778999,293.8774809,2934.160449,-1,-1
1.71E+12,2,3.402772012,293.878084,2934.160511,-1,-1
1.71E+12,2,3.402765531,293.8786434,2934.160608,-1,-1
1.71E+12,2,3.402759559,293.8791589,2934.160735,-1,-1
1.71E+12,2,3.402754095,293.8796305,2934.160886,-1,-1
1.71E+12,2,3.402749137,293.8800584,2934.161066,-1,-1
1.71E+12,2,3.402744683,293.8804428,2934.161275,-1,-1
1.71E+12,2,3.402740728,293.8807841,2934.161508,-1,-1
1.71E+12,2,3.40273727,293.8810826,2934.161765,-1,-1
1.71E+12,2,3.402734306,293.8813383,2934.162049,-1,-1
1.71E+12,2,3.402731837,293.8815513,2934.162357,-1,-1
1.71E+12,2,3.402729862,293.8817216,2934.162683,-1,-1
1.71E+12,2,3.402728383,293.8818491,2934.163028,-1,-1
1.71E+12,2,3.402727402,293.8819337,2934.163394,-1,-1
1.71E+12,2,3.402726911,293.8819758,2934.163774,-1,-1
1.71E+12,2,3.402726908,293.8819759,2934.164164,-1,-1
1.71E+12,2,3.402727385,293.8819345,2934.164566,-1,-1
1.71E+12,2,3.402728337,293.8818521,2934.164979,-1,-1
1.71E+12,2,3.402729757,293.8817293,2934.165399,-1,-1
1.71E+12,2,3.402731642,293.8815663,2934.165827,-1,-1
1.71E+12,2,3.402733987,293.8813637,2934.166265,-1,-1
1.71E+12,2,3.402736784,293.8811219,2934.166709,-1,-1
1.71E+12,2,3.402740027,293.8808417,2934.167155,-1,-1
1.71E+12,2,3.402743709,293.8805235,2934.167603,-1,-1
1.71E+12,2,3.402747827,293.8801678,2934.168051,-1,-1
1.71E+12,2,3.402752372,293.8797752,2934.168492,-1,-1
1.71E+12,2,3.402757336,293.8793463,2934.168923,-1,-1
1.71E+12,2,3.402762711,293.878882,2934.169344,-1,-1
1.71E+12,2,3.402768487,293.8783831,2934.169755,-1,-1
1.71E+12,2,3.402774655,293.8778503,2934.170148,-1,-1
1.71E+12,2,3.402781202,293.8772848,2934.170524,-1,-1
1.71E+12,2,3.402788116,293.8766877,2934.170883,-1,-1
1.71E+12,2,3.402795381,293.8760601,2934.171221,-1,-1
1.71E+12,2,3.402802986,293.8754033,2934.171532,-1,-1
1.71E+12,2,3.402810915,293.8747185,2934.17182,-1,-1
1.71E+12,2,3.402819156,293.8740068,2934.172084,-1,-1
1.71E+12,2,3.402827696,293.8732692,2934.172321,-1,-1
1.71E+12,2,3.402836524,293.8725067,2934.172532,-1,-1
1.71E+12,2,3.40284563,293.8717203,2934.17272,-1,-1
1.71E+12,2,3.402855001,293.870911,2934.172883,-1,-1
1.71E+12,2,3.40286462,293.8700802,2934.173015,-1,-1
1.71E+12,2,3.402874473,293.8692293,2934.17312,-1,-1
1.71E+12,2,3.402884545,293.8683595,2934.1732,-1,-1
1.71E+12,2,3.402894818,293.8674724,2934.173252,-1,-1
1.71E+12,2,3.402905278,293.866569,2934.173274,-1,-1
1.71E+12,2,3.402915913,293.8656505,2934.17327,-1,-1
1.71E+12,2,3.402926707,293.8647184,2934.173241,-1,-1
1.71E+12,2,3.402937643,293.8637741,2934.173184,-1,-1
1.71E+12,2,3.402948701,293.8628191,2934.1731,-1,-1
1.71E+12,2,3.402959864,293.8618551,2934.172992,-1,-1
1.71E+12,2,3.402971111,293.8608838,2934.172857,-1,-1
1.71E+12,2,3.402982425,293.8599068,2934.172692,-1,-1
1.71E+12,2,3.402993786,293.8589258,2934.172502,-1,-1
1.71E+12,2,3.403005176,293.8579422,2934.172289,-1,-1
1.71E+12,2,3.403016581,293.8569573,2934.172051,-1,-1
1.71E+12,2,3.403027984,293.8559727,2934.171786,-1,-1
1.71E+12,2,3.403039366,293.8549898,2934.171501,-1,-1
1.71E+12,2,3.403050709,293.8540103,2934.171198,-1,-1
1.71E+12,2,3.403061994,293.8530358,2934.170871,-1,-1
1.71E+12,2,3.403073201,293.8520681,2934.170525,-1,-1
1.71E+12,2,3.40308431,293.8511088,2934.170163,-1,-1
1.71E+12,2,3.403095302,293.8501597,2934.169785,-1,-1
1.71E+12,2,3.403106158,293.8492223,2934.16939,-1,-1
1.71E+12,2,3.403116857,293.8482984,2934.168981,-1,-1
1.71E+12,2,3.403127379,293.8473898,2934.168563,-1,-1
1.71E+12,2,3.403137704,293.8464983,2934.168132,-1,-1
1.71E+12,2,3.403147809,293.8456258,2934.167692,-1,-1
1.71E+12,2,3.403157675,293.8447739,2934.167249,-1,-1
1.71E+12,2,3.403167282,293.8439443,2934.166805,-1,-1
1.71E+12,2,3.403176609,293.8431391,2934.166358,-1,-1
1.71E+12,2,3.403185637,293.8423596,2934.165913,-1,-1
1.71E+12,2,3.40319435,293.8416072,2934.165472,-1,-1
1.71E+12,2,3.403202733,293.8408834,2934.165033,-1,-1
1.71E+12,2,3.403210768,293.8401897,2934.164595,-1,-1
1.71E+12,2,3.403218436,293.8395276,2934.164166,-1,-1
1.71E+12,2,3.403225716,293.838899,2934.163747,-1,-1
1.71E+12,2,3.403232587,293.8383058,2934.16334,-1,-1
1.71E+12,2,3.403239028,293.8377497,2934.162948,-1,-1
1.71E+12,2,3.403245021,293.8372323,2934.162577,-1,-1
1.71E+12,2,3.40325055,293.836755,2934.162229,-1,-1
1.71E+12,2,3.403255604,293.8363187,2934.161901,-1,-1
1.71E+12,2,3.403260168,293.8359247,2934.1616,-1,-1
1.71E+12,2,3.403264228,293.8355742,2934.16133,-1,-1
1.71E+12,2,3.403267769,293.8352686,2934.161087,-1,-1
1.71E+12,2,3.403270779,293.8350088,2934.160872,-1,-1
1.71E+12,2,3.403273244,293.834796,2934.160691,-1,-1
1.71E+12,2,3.403275157,293.834631,2934.160548,-1,-1
1.71E+12,2,3.403276506,293.8345146,2934.160441,-1,-1
1.71E+12,2,3.403277283,293.8344477,2934.160378,-1,-1
1.71E+12,2,3.403277477,293.8344311,2934.160362,-1,-1
1.71E+12,2,3.403277081,293.8344655,2934.160387,-1,-1
1.71E+12,2,3.403276083,293.8345517,2934.160452,-1,-1
1.71E+12,2,3.403274476,293.8346907,2934.160564,-1,-1
1.71E+12,2,3.403272252,293.8348829,2934.160725,-1,-1
1.71E+12,2,3.403269405,293.8351289,2934.160933,-1,-1
1.71E+12,2,3.403265929,293.8354293,2934.161189,-1,-1
1.71E+12,2,3.403261819,293.8357843,2934.161496,-1,-1
1.71E+12,2,3.403257075,293.8361942,2934.161852,-1,-1
1.71E+12,2,3.403251694,293.836659,2934.162254,-1,-1
1.71E+12,2,3.403245678,293.8371787,2934.162705,-1,-1
1.71E+12,2,3.403239023,293.8377536,2934.16321,-1,-1
1.71E+12,2,3.403231723,293.8383841,2934.163763,-1,-1
1.71E+12,2,3.403223777,293.8390705,2934.164364,-1,-1
1.71E+12,2,3.403215186,293.8398125,2934.165017,-1,-1
1.71E+12,2,3.403205953,293.84061,2934.165724,-1,-1
1.71E+12,2,3.403196083,293.8414626,2934.166485,-1,-1
1.71E+12,2,3.403185585,293.8423693,2934.167301,-1,-1
1.71E+12,2,3.403174466,293.8433297,2934.168173,-1,-1
1.71E+12,2,3.403162731,293.8443432,2934.169096,-1,-1
1.71E+12,2,3.403150387,293.8454094,2934.170065,-1,-1
1.71E+12,2,3.403137437,293.8465279,2934.171084,-1,-1
1.71E+12,2,3.40312389,293.847698,2934.172154,-1,-1
1.71E+12,2,3.403109756,293.8489188,2934.173268,-1,-1
1.71E+12,2,3.403095042,293.8501896,2934.174426,-1,-1
1.71E+12,2,3.40307976,293.8515095,2934.175628,-1,-1
1.71E+12,2,3.40306392,293.8528776,2934.176875,-1,-1
1.71E+12,2,3.403047532,293.8542931,2934.17816,-1,-1
1.71E+12,2,3.403030607,293.8557549,2934.179487,-1,-1
1.71E+12,2,3.403013158,293.857262,2934.180857,-1,-1
1.71E+12,2,3.4029952,293.858813,2934.182263,-1,-1
1.71E+12,2,3.402976749,293.8604066,2934.183702,-1,-1
1.71E+12,2,3.402957821,293.8620414,2934.185175,-1,-1
1.71E+12,2,3.402938436,293.8637157,2934.186682,-1,-1
1.71E+12,2,3.402918612,293.8654279,2934.188219,-1,-1
1.71E+12,2,3.402898369,293.8671764,2934.189779,-1,-1
1.71E+12,2,3.402877723,293.8689596,2934.191366,-1,-1
1.71E+12,2,3.40285669,293.8707763,2934.192974,-1,-1
1.71E+12,2,3.402835285,293.872625,2934.1946,-1,-1
1.71E+12,2,3.402813526,293.8745044,2934.196245,-1,-1
1.71E+12,2,3.402791428,293.8764131,2934.19791,-1,-1
1.71E+12,2,3.402769007,293.8783496,2934.199587,-1,-1
1.71E+12,2,3.402746284,293.8803123,2934.201274,-1,-1
1.71E+12,2,3.40272328,293.8822993,2934.202972,-1,-1
1.71E+12,2,3.402700017,293.8843085,2934.204678,-1,-1
1.71E+12,2,3.402676514,293.8863386,2934.206385,-1,-1
1.71E+12,2,3.402652787,293.888388,2934.208093,-1,-1
1.71E+12,2,3.402628854,293.8904552,2934.209803,-1,-1
1.71E+12,2,3.402604733,293.8925387,2934.211506,-1,-1
1.71E+12,2,3.402580443,293.8946368,2934.213199,-1,-1
1.71E+12,2,3.402556002,293.896748,2934.214884,-1,-1
1.71E+12,2,3.402531427,293.8988707,2934.216559,-1,-1
1.71E+12,2,3.402506735,293.9010035,2934.218219,-1,-1
1.71E+12,2,3.402481942,293.9031451,2934.21986,-1,-1
