Shimmer_89F4_TimestampSync_Unix_CAL,Shimmer_89F4_ECG_EMG_Status1_LPF_CAL,Shimmer_89F4_ECG_EMG_Status2_LPF_CAL,Shimmer_89F4_ECG_IBI_LA_RA_LPF_CAL,Shimmer_89F4_ECG_IBI_LL_LA_LPF_CAL,Shimmer_89F4_ECG_IBI_LL_RA_LPF_CAL,Shimmer_89F4_ECG_IBI_Vx_RL_LPF_CAL,Shimmer_89F4_ECG_LA_RA_24BIT_LPF_CAL,Shimmer_89F4_ECG_LL_LA_24BIT_LPF_CAL,Shimmer_89F4_ECG_LL_RA_24BIT_LPF_CAL,Shimmer_89F4_ECG_Vx_RL_24BIT_LPF_CAL,Shimmer_89F4_ECGtoHR_LA_RA_LPF_CAL,Shimmer_89F4_ECGtoHR_LL_LA_LPF_CAL,Shimmer_89F4_ECGtoHR_LL_RA_LPF_CAL,Shimmer_89F4_ECGtoHR_Vx_RL_LPF_CAL
1.71E+12,128,128,-1,-1,-1,-1,66.19467332,5.444750243,71.63942357,-129.6503114,-1,-1,-1,-1
1.71E+12,128,128,-1,-1,-1,-1,66.19467332,5.444750243,71.63942357,-129.6503114,-1,-1,-1,-1
1.71E+12,128,128,-1,-1,-1,-1,66.19467336,5.444750242,71.6394236,-129.6503115,-1,-1,-1,-1
1.71E+12,128,128,-1,-1,-1,-1,66.19467345,5.44475023,71.63942368,-129.6503116,-1,-1,-1,-1
1.71E+12,128,128,-1,-1,-1,-1,66.19467361,5.444750184,71.63942379,-129.6503118,-1,-1,-1,-1
1.71E+12,128,128,-1,-1,-1,-1,66.19467388,5.444750063,71.63942394,-129.6503123,-1,-1,-1,-1
1.71E+12,128,128,-1,-1,-1,-1,66.19467439,5.444749806,71.63942419,-129.6503131,-1,-1,-1,-1
1.71E+12,128,128,-1,-1,-1,-1,66.19467525,5.444749326,71.63942457,-129.6503144,-1,-1,-1,-1
1.71E+12,128,128,-1,-1,-1,-1,66.19467658,5.444748508,71.63942508,-129.6503162,-1,-1,-1,-1
1.71E+12,128,128,-1,-1,-1,-1,66.19467852,5.444747213,71.63942574,-129.6503188,-1,-1,-1,-1
1.71E+12,128,128,-1,-1,-1,-1,66.19468129,5.444745279,71.63942657,-129.6503221,-1,-1,-1,-1
1.71E+12,128,128,-1,-1,-1,-1,66.19468506,5.444742542,71.63942761,-129.6503264,-1,-1,-1,-1
1.71E+12,128,128,-1,-1,-1,-1,66.19468999,5.44473884,71.63942883,-129.6503318,-1,-1,-1,-1
1.71E+12,128,128,-1,-1,-1,-1,66.19469627,5.444734026,71.63943029,-129.6503385,-1,-1,-1,-1
1.71E+12,128,128,-1,-1,-1,-1,66.19470409,5.444727993,71.63943208,-129.6503467,-1,-1,-1,-1
1.71E+12,128,128,-1,-1,-1,-1,66.19471364,5.444720689,71.63943433,-129.6503564,-1,-1,-1,-1
1.71E+12,128,128,-1,-1,-1,-1,66.19472512,5.444712078,71.63943719,-129.650368,-1,-1,-1,-1
1.71E+12,128,128,-1,-1,-1,-1,66.19473879,5.444702094,71.63944088,-129.6503816,-1,-1,-1,-1
1.71E+12,128,128,-1,-1,-1,-1,66.19475496,5.444690654,71.63944561,-129.6503974,-1,-1,-1,-1
1.71E+12,128,128,-1,-1,-1,-1,66.19477399,5.444677673,71.63945167,-129.6504154,-1,-1,-1,-1
1.71E+12,128,128,-1,-1,-1,-1,66.19479625,5.444663063,71.63945932,-129.6504359,-1,-1,-1,-1
1.71E+12,128,128,-1,-1,-1,-1,66.19482211,5.444646741,71.63946885,-129.6504589,-1,-1,-1,-1
1.71E+12,128,128,-1,-1,-1,-1,66.19485195,5.444628584,71.63948053,-129.6504846,-1,-1,-1,-1
1.71E+12,128,128,-1,-1,-1,-1,66.19488622,5.444608425,71.63949464,-129.6505132,-1,-1,-1,-1
1.71E+12,128,128,-1,-1,-1,-1,66.19492539,5.44458612,71.63951151,-129.6505448,-1,-1,-1,-1
1.71E+12,128,128,-1,-1,-1,-1,66.19496999,5.444561549,71.63953154,-129.6505791,-1,-1,-1,-1
1.71E+12,128,128,-1,-1,-1,-1,66.19502059,5.444534584,71.63955517,-129.6506164,-1,-1,-1,-1
1.71E+12,128,128,-1,-1,-1,-1,66.19507774,5.444505106,71.63958285,-129.6506565,-1,-1,-1,-1
1.71E+12,128,128,-1,-1,-1,-1,66.19514208,5.444472999,71.63961508,-129.6506996,-1,-1,-1,-1
1.71E+12,128,128,-1,-1,-1,-1,66.19521431,5.444438151,71.63965246,-129.6507456,-1,-1,-1,-1
1.71E+12,128,128,-1,-1,-1,-1,66.1952951,5.444400444,71.63969554,-129.6507946,-1,-1,-1,-1
1.71E+12,128,128,-1,-1,-1,-1,66.19538515,5.444359728,71.63974487,-129.6508464,-1,-1,-1,-1
1.71E+12,128,128,-1,-1,-1,-1,66.19548522,5.444315836,71.63980105,-129.6509011,-1,-1,-1,-1
1.71E+12,128,128,-1,-1,-1,-1,66.19559613,5.444268605,71.63986474,-129.6509587,-1,-1,-1,-1
1.71E+12,128,128,-1,-1,-1,-1,66.19571875,5.444217889,71.63993664,-129.6510192,-1,-1,-1,-1
1.71E+12,128,128,-1,-1,-1,-1,66.19585395,5.444163532,71.64001749,-129.6510824,-1,-1,-1,-1
1.71E+12,128,128,-1,-1,-1,-1,66.19600266,5.444105368,71.64010803,-129.6511484,-1,-1,-1,-1
1.71E+12,128,128,-1,-1,-1,-1,66.19616588,5.444043227,71.6402091,-129.6512169,-1,-1,-1,-1
1.71E+12,128,128,-1,-1,-1,-1,66.19634458,5.443976931,71.64032151,-129.6512879,-1,-1,-1,-1
1.71E+12,128,128,-1,-1,-1,-1,66.1965398,5.443906321,71.64044612,-129.651361,-1,-1,-1,-1
1.71E+12,128,128,-1,-1,-1,-1,66.19675257,5.443831251,71.64058382,-129.651436,-1,-1,-1,-1
1.71E+12,128,128,-1,-1,-1,-1,66.19698396,5.443751571,71.64073553,-129.6515125,-1,-1,-1,-1
1.71E+12,128,128,-1,-1,-1,-1,66.19723508,5.443667128,71.64090221,-129.6515901,-1,-1,-1,-1
1.71E+12,128,128,-1,-1,-1,-1,66.19750711,5.443577774,71.64108488,-129.6516683,-1,-1,-1,-1
1.71E+12,128,128,-1,-1,-1,-1,66.19780128,5.44348335,71.64128463,-129.6517467,-1,-1,-1,-1
1.71E+12,128,128,-1,-1,-1,-1,66.19811888,5.443383686,71.64150256,-129.6518247,-1,-1,-1,-1
1.71E+12,128,128,-1,-1,-1,-1,66.19846118,5.443278613,71.64173979,-129.6519017,-1,-1,-1,-1
1.71E+12,128,128,-1,-1,-1,-1,66.1988295,5.443167957,71.64199746,-129.6519773,-1,-1,-1,-1
1.71E+12,128,128,-1,-1,-1,-1,66.19922518,5.443051544,71.64227672,-129.6520506,-1,-1,-1,-1
1.71E+12,128,128,-1,-1,-1,-1,66.19964961,5.442929208,71.64257882,-129.6521211,-1,-1,-1,-1
1.71E+12,128,128,-1,-1,-1,-1,66.20010424,5.442800793,71.64290504,-129.652188,-1,-1,-1,-1
1.71E+12,128,128,-1,-1,-1,-1,66.2005905,5.442666168,71.64325667,-129.6522506,-1,-1,-1,-1
1.71E+12,128,128,-1,-1,-1,-1,66.20110985,5.44252522,71.64363507,-129.6523082,-1,-1,-1,-1
1.71E+12,128,128,-1,-1,-1,-1,66.20166376,5.442377855,71.64404161,-129.6523599,-1,-1,-1,-1
1.71E+12,128,128,-1,-1,-1,-1,66.20225374,5.442223968,71.6444777,-129.6524049,-1,-1,-1,-1
1.71E+12,128,128,-1,-1,-1,-1,66.20288132,5.442063442,71.64494476,-129.6524424,-1,-1,-1,-1
1.71E+12,128,128,-1,-1,-1,-1,66.20354808,5.441896175,71.64544425,-129.6524715,-1,-1,-1,-1
1.71E+12,128,128,-1,-1,-1,-1,66.20425561,5.441722103,71.64597771,-129.6524912,-1,-1,-1,-1
1.71E+12,128,128,-1,-1,-1,-1,66.20500546,5.441541195,71.64654665,-129.6525006,-1,-1,-1,-1
1.71E+12,128,128,-1,-1,-1,-1,66.20579916,5.441353441,71.6471526,-129.6524987,-1,-1,-1,-1
1.71E+12,128,128,-1,-1,-1,-1,66.20663826,5.441158867,71.64779713,-129.6524844,-1,-1,-1,-1
1.71E+12,128,128,-1,-1,-1,-1,66.20752429,5.440957548,71.64848184,-129.6524566,-1,-1,-1,-1
1.71E+12,128,128,-1,-1,-1,-1,66.2084587,5.440749612,71.64920832,-129.6524143,-1,-1,-1,-1
1.71E+12,128,128,-1,-1,-1,-1,66.20944299,5.440535223,71.64997821,-129.6523562,-1,-1,-1,-1
1.71E+12,128,128,-1,-1,-1,-1,66.21047862,5.440314552,71.65079317,-129.6522813,-1,-1,-1,-1
1.71E+12,128,128,-1,-1,-1,-1,66.21156707,5.440087745,71.65165482,-129.6521884,-1,-1,-1,-1
1.71E+12,128,128,-1,-1,-1,-1,66.21270983,5.439854922,71.65256475,-129.6520763,-1,-1,-1,-1
1.71E+12,128,128,-1,-1,-1,-1,66.21390841,5.43961623,71.65352464,-129.6519437,-1,-1,-1,-1
1.71E+12,128,128,-1,-1,-1,-1,66.21516426,5.439371857,71.65453612,-129.6517894,-1,-1,-1,-1
1.71E+12,128,128,-1,-1,-1,-1,66.21647882,5.43912203,71.65560085,-129.6516121,-1,-1,-1,-1
1.71E+12,128,128,-1,-1,-1,-1,66.2178535,5.438867015,71.65672051,-129.6514105,-1,-1,-1,-1
1.71E+12,128,128,-1,-1,-1,-1,66.21928958,5.438607111,71.65789669,-129.6511831,-1,-1,-1,-1
1.71E+12,128,128,-1,-1,-1,-1,66.22078832,5.438342647,71.65913096,-129.6509287,-1,-1,-1,-1
1.71E+12,128,128,-1,-1,-1,-1,66.22235089,5.43807397,71.66042486,-129.6506458,-1,-1,-1,-1
1.71E+12,128,128,-1,-1,-1,-1,66.22397844,5.437801451,71.66177989,-129.6503331,-1,-1,-1,-1
1.71E+12,128,128,-1,-1,-1,-1,66.22567204,5.437525491,71.66319753,-129.6499894,-1,-1,-1,-1
1.71E+12,128,128,-1,-1,-1,-1,66.22743264,5.43724652,71.66467916,-129.6496132,-1,-1,-1,-1
1.71E+12,128,128,-1,-1,-1,-1,66.2292611,5.436965006,71.6662261,-129.6492032,-1,-1,-1,-1
1.71E+12,128,128,-1,-1,-1,-1,66.23115815,5.43668145,71.6678396,-129.6487584,-1,-1,-1,-1
1.71E+12,128,128,-1,-1,-1,-1,66.23312448,5.436396368,71.66952085,-129.6482773,-1,-1,-1,-1
1.71E+12,128,128,-1,-1,-1,-1,66.23516066,5.436110272,71.67127093,-129.647759,-1,-1,-1,-1
1.71E+12,128,128,-1,-1,-1,-1,66.23726713,5.435823665,71.67309079,-129.6472023,-1,-1,-1,-1
1.71E+12,128,128,-1,-1,-1,-1,66.23944419,5.435537065,71.67498126,-129.6466061,-1,-1,-1,-1
1.71E+12,128,128,-1,-1,-1,-1,66.24169205,5.435251021,71.67694307,-129.6459694,-1,-1,-1,-1
1.71E+12,128,128,-1,-1,-1,-1,66.24401083,5.434966095,71.67897693,-129.6452913,-1,-1,-1,-1
1.71E+12,128,128,-1,-1,-1,-1,66.24640052,5.434682844,71.68108336,-129.6445709,-1,-1,-1,-1
1.71E+12,128,128,-1,-1,-1,-1,66.24886092,5.434401838,71.68326276,-129.6438074,-1,-1,-1,-1
1.71E+12,128,128,-1,-1,-1,-1,66.25139173,5.434123699,71.68551543,-129.6430001,-1,-1,-1,-1
1.71E+12,128,128,-1,-1,-1,-1,66.25399248,5.433849109,71.68784159,-129.6421483,-1,-1,-1,-1
1.71E+12,128,128,-1,-1,-1,-1,66.25666247,5.433578812,71.69024128,-129.6412514,-1,-1,-1,-1
1.71E+12,128,128,-1,-1,-1,-1,66.25940083,5.433313581,71.69271441,-129.6403088,-1,-1,-1,-1
1.71E+12,128,128,-1,-1,-1,-1,66.26220659,5.433054191,71.69526078,-129.6393201,-1,-1,-1,-1
1.71E+12,128,128,-1,-1,-1,-1,66.2650786,5.432801403,71.69788,-129.6382849,-1,-1,-1,-1
1.71E+12,128,128,-1,-1,-1,-1,66.26801557,5.432555973,71.70057154,-129.6372031,-1,-1,-1,-1
1.71E+12,128,128,-1,-1,-1,-1,66.27101604,5.432318646,71.70333469,-129.6360745,-1,-1,-1,-1
1.71E+12,128,128,-1,-1,-1,-1,66.27407846,5.432090163,71.70616863,-129.6348992,-1,-1,-1,-1
1.71E+12,128,128,-1,-1,-1,-1,66.27720113,5.43187128,71.70907241,-129.6336773,-1,-1,-1,-1
1.71E+12,128,128,-1,-1,-1,-1,66.28038218,5.431662754,71.71204493,-129.6324091,-1,-1,-1,-1
1.71E+12,128,128,-1,-1,-1,-1,66.28361958,5.431465338,71.71508492,-129.6310951,-1,-1,-1,-1
1.71E+12,128,128,-1,-1,-1,-1,66.28691112,5.431279788,71.7181909,-129.6297358,-1,-1,-1,-1
1.71E+12,128,128,-1,-1,-1,-1,66.29025437,5.431106877,71.72136125,-129.6283318,-1,-1,-1,-1
1.71E+12,128,128,-1,-1,-1,-1,66.29364682,5.430947378,71.72459419,-129.6268843,-1,-1,-1,-1
1.71E+12,128,128,-1,-1,-1,-1,66.29708576,5.430802037,71.7278878,-129.6253941,-1,-1,-1,-1
1.71E+12,128,128,-1,-1,-1,-1,66.30056837,5.430671596,71.73123997,-129.6238626,-1,-1,-1,-1
1.71E+12,128,128,-1,-1,-1,-1,66.30409167,5.430556893,71.73464856,-129.6222911,-1,-1,-1,-1
1.71E+12,128,128,-1,-1,-1,-1,66.30765246,5.430458832,71.73811129,-129.6206811,-1,-1,-1,-1
1.71E+12,128,128,-1,-1,-1,-1,66.31124745,5.430378277,71.74162573,-129.6190344,-1,-1,-1,-1
1.71E+12,128,128,-1,-1,-1,-1,66.31487323,5.430316057,71.74518929,-129.6173529,-1,-1,-1,-1
1.71E+12,128,128,-1,-1,-1,-1,66.3185262,5.430272995,71.7487992,-129.6156386,-1,-1,-1,-1
1.71E+12,128,128,-1,-1,-1,-1,66.32220264,5.430249932,71.75245258,-129.6138938,-1,-1,-1,-1
1.71E+12,128,128,-1,-1,-1,-1,66.32589869,5.430247721,71.75614641,-129.612121,-1,-1,-1,-1
1.71E+12,128,128,-1,-1,-1,-1,66.32961032,5.430267202,71.75987752,-129.6103229,-1,-1,-1,-1
1.71E+12,128,128,-1,-1,-1,-1,66.33333343,5.430309181,71.76364261,-129.6085022,-1,-1,-1,-1
1.71E+12,128,128,-1,-1,-1,-1,66.33706381,5.430374438,71.76743825,-129.6066621,-1,-1,-1,-1
1.71E+12,128,128,-1,-1,-1,-1,66.34079711,5.430463729,71.77126084,-129.6048059,-1,-1,-1,-1
1.71E+12,128,128,-1,-1,-1,-1,66.34452883,5.430577805,71.77510663,-129.6029371,-1,-1,-1,-1
1.71E+12,128,128,-1,-1,-1,-1,66.34825439,5.43071744,71.77897183,-129.6010594,-1,-1,-1,-1
1.71E+12,128,128,-1,-1,-1,-1,66.35196915,5.430883426,71.78285257,-129.5991768,-1,-1,-1,-1
1.71E+12,128,128,-1,-1,-1,-1,66.35566832,5.431076555,71.78674487,-129.5972935,-1,-1,-1,-1
1.71E+12,128,128,-1,-1,-1,-1,66.35934705,5.431297585,71.79064464,-129.5954137,-1,-1,-1,-1
1.71E+12,128,128,-1,-1,-1,-1,66.36300044,5.431547234,71.79454767,-129.5935419,-1,-1,-1,-1
1.71E+12,128,128,-1,-1,-1,-1,66.36662352,5.431826188,71.79844971,-129.5916827,-1,-1,-1,-1
1.71E+12,128,128,-1,-1,-1,-1,66.37021131,5.432135088,71.80234639,-129.5898408,-1,-1,-1,-1
1.71E+12,128,128,-1,-1,-1,-1,66.37375881,5.432474517,71.80623333,-129.5880211,-1,-1,-1,-1
1.71E+12,128,128,-1,-1,-1,-1,66.37726103,5.432845018,71.81010604,-129.5862287,-1,-1,-1,-1
1.71E+12,128,128,-1,-1,-1,-1,66.38071292,5.433247113,71.81396003,-129.5844687,-1,-1,-1,-1
1.71E+12,128,128,-1,-1,-1,-1,66.38410943,5.433681293,71.81779072,-129.5827465,-1,-1,-1,-1
1.71E+12,128,128,-1,-1,-1,-1,66.38744553,5.434148009,71.82159354,-129.5810673,-1,-1,-1,-1
1.71E+12,128,128,-1,-1,-1,-1,66.39071623,5.43464771,71.82536394,-129.5794366,-1,-1,-1,-1
1.71E+12,128,128,-1,-1,-1,-1,66.39391652,5.435180838,71.82909736,-129.57786,-1,-1,-1,-1
1.71E+12,128,128,-1,-1,-1,-1,66.39704139,5.435747814,71.8327892,-129.5763431,-1,-1,-1,-1
1.71E+12,128,128,-1,-1,-1,-1,66.40008581,5.436349024,71.83643483,-129.5748917,-1,-1,-1,-1
1.71E+12,128,128,-1,-1,-1,-1,66.40304481,5.436984833,71.84002964,-129.5735114,-1,-1,-1,-1
1.71E+12,128,128,-1,-1,-1,-1,66.4059135,5.437655574,71.84356907,-129.5722082,-1,-1,-1,-1
1.71E+12,128,128,-1,-1,-1,-1,66.40868705,5.438361541,71.84704859,-129.5709879,-1,-1,-1,-1
1.71E+12,128,128,-1,-1,-1,-1,66.41136076,5.439102963,71.85046372,-129.5698561,-1,-1,-1,-1
1.71E+12,128,128,-1,-1,-1,-1,66.41393013,5.439879977,71.85381011,-129.5688189,-1,-1,-1,-1
1.71E+12,128,128,-1,-1,-1,-1,66.41639078,5.440692671,71.85708345,-129.567882,-1,-1,-1,-1
1.71E+12,128,128,-1,-1,-1,-1,66.41873843,5.441541062,71.86027949,-129.5670513,-1,-1,-1,-1
1.71E+12,128,128,-1,-1,-1,-1,66.42096894,5.442425094,71.86339403,-129.5663326,-1,-1,-1,-1
1.71E+12,128,128,-1,-1,-1,-1,66.42307829,5.443344651,71.86642294,-129.5657318,-1,-1,-1,-1
1.71E+12,128,128,-1,-1,-1,-1,66.42506265,5.444299597,71.86936224,-129.5652545,-1,-1,-1,-1
1.71E+12,128,128,-1,-1,-1,-1,66.42691837,5.445289795,71.87220816,-129.5649066,-1,-1,-1,-1
1.71E+12,128,128,-1,-1,-1,-1,66.42864205,5.44631506,71.87495711,-129.5646936,-1,-1,-1,-1
1.71E+12,128,128,-1,-1,-1,-1,66.43023044,5.447375188,71.87760563,-129.5646213,-1,-1,-1,-1
1.71E+12,128,128,-1,-1,-1,-1,66.43168049,5.448469983,71.88015047,-129.5646951,-1,-1,-1,-1
1.71E+12,128,128,-1,-1,-1,-1,66.43298931,5.449599255,71.88258856,-129.5649206,-1,-1,-1,-1
1.71E+12,128,128,-1,-1,-1,-1,66.43415418,5.450762781,71.88491696,-129.5653031,-1,-1,-1,-1
1.71E+12,128,128,-1,-1,-1,-1,66.43517264,5.451960319,71.88713296,-129.565848,-1,-1,-1,-1
1.71E+12,128,128,-1,-1,-1,-1,66.43604246,5.453191608,71.88923407,-129.5665606,-1,-1,-1,-1
1.71E+12,128,128,-1,-1,-1,-1,66.43676165,5.454456311,71.89121796,-129.5674458,-1,-1,-1,-1
1.71E+12,128,128,-1,-1,-1,-1,66.43732846,5.455754027,71.89308249,-129.5685087,-1,-1,-1,-1
1.71E+12,128,128,-1,-1,-1,-1,66.43774141,5.457084312,71.89482573,-129.5697541,-1,-1,-1,-1
1.71E+12,128,128,-1,-1,-1,-1,66.43799934,5.458446678,71.89644602,-129.5711866,-1,-1,-1,-1
1.71E+12,128,128,-1,-1,-1,-1,66.4381014,5.45984057,71.89794197,-129.5728105,-1,-1,-1,-1
1.71E+12,128,128,-1,-1,-1,-1,66.43804704,5.461265364,71.8993124,-129.5746302,-1,-1,-1,-1
1.71E+12,128,128,-1,-1,-1,-1,66.43783596,5.46272034,71.9005563,-129.5766496,-1,-1,-1,-1
1.71E+12,128,128,-1,-1,-1,-1,66.43746816,5.464204733,71.90167289,-129.5788726,-1,-1,-1,-1
1.71E+12,128,128,-1,-1,-1,-1,66.43694393,5.465717775,71.90266171,-129.5813028,-1,-1,-1,-1
1.71E+12,128,128,-1,-1,-1,-1,66.43626385,5.467258707,71.90352256,-129.5839434,-1,-1,-1,-1
1.71E+12,128,128,-1,-1,-1,-1,66.43542877,5.468826804,71.90425557,-129.5867976,-1,-1,-1,-1
1.71E+12,128,128,-1,-1,-1,-1,66.43443982,5.470421347,71.90486116,-129.589868,-1,-1,-1,-1
1.71E+12,128,128,-1,-1,-1,-1,66.43329842,5.472041574,71.90534,-129.5931572,-1,-1,-1,-1
1.71E+12,128,128,-1,-1,-1,-1,66.43200626,5.473686666,71.90569293,-129.5966676,-1,-1,-1,-1
1.71E+12,128,128,-1,-1,-1,-1,66.43056524,5.47535577,71.90592101,-129.6004009,-1,-1,-1,-1
1.71E+12,128,128,-1,-1,-1,-1,66.42897751,5.477048052,71.90602556,-129.6043589,-1,-1,-1,-1
1.71E+12,128,128,-1,-1,-1,-1,66.42724551,5.478762713,71.90600822,-129.6085428,-1,-1,-1,-1
1.71E+12,128,128,-1,-1,-1,-1,66.42537193,5.480498966,71.90587089,-129.6129537,-1,-1,-1,-1
1.71E+12,128,128,-1,-1,-1,-1,66.42335971,5.482256023,71.90561573,-129.6175924,-1,-1,-1,-1
1.71E+12,128,128,-1,-1,-1,-1,66.42121211,5.484033114,71.90524523,-129.6224592,-1,-1,-1,-1
1.71E+12,128,128,-1,-1,-1,-1,66.41893268,5.485829458,71.90476214,-129.6275542,-1,-1,-1,-1
1.71E+12,128,128,-1,-1,-1,-1,66.41652518,5.487644246,71.90416942,-129.632877,-1,-1,-1,-1
1.71E+12,128,128,-1,-1,-1,-1,66.41399362,5.489476649,71.90347027,-129.6384268,-1,-1,-1,-1
1.71E+12,128,128,-1,-1,-1,-1,66.41134227,5.491325829,71.9026681,-129.6442027,-1,-1,-1,-1
1.71E+12,128,128,-1,-1,-1,-1,66.40857558,5.493190967,71.90176655,-129.6502033,-1,-1,-1,-1
1.71E+12,128,128,-1,-1,-1,-1,66.40569822,5.495071279,71.9007695,-129.6564269,-1,-1,-1,-1
1.71E+12,128,128,-1,-1,-1,-1,66.40271505,5.49696599,71.89968104,-129.6628714,-1,-1,-1,-1
1.71E+12,128,128,-1,-1,-1,-1,66.39963105,5.498874344,71.89850539,-129.6695345,-1,-1,-1,-1
1.71E+12,128,128,-1,-1,-1,-1,66.39645138,5.500795575,71.89724695,-129.6764136,-1,-1,-1,-1
1.71E+12,128,128,-1,-1,-1,-1,66.39318137,5.502728909,71.89591028,-129.6835056,-1,-1,-1,-1
1.71E+12,128,128,-1,-1,-1,-1,66.38982649,5.504673583,71.89450007,-129.6908072,-1,-1,-1,-1
1.71E+12,128,128,-1,-1,-1,-1,66.38639232,5.506628826,71.89302114,-129.6983148,-1,-1,-1,-1
1.71E+12,128,128,-1,-1,-1,-1,66.38288458,5.50859387,71.89147845,-129.7060245,-1,-1,-1,-1
1.71E+12,128,128,-1,-1,-1,-1,66.37930909,5.510567935,71.88987702,-129.713932,-1,-1,-1,-1
1.71E+12,128,128,-1,-1,-1,-1,66.37567169,5.512550218,71.88822191,-129.7220329,-1,-1,-1,-1
1.71E+12,128,128,-1,-1,-1,-1,66.37197833,5.51453995,71.88651828,-129.7303223,-1,-1,-1,-1
1.71E+12,128,128,-1,-1,-1,-1,66.36823508,5.516536363,71.88477144,-129.738795,-1,-1,-1,-1
1.71E+12,128,128,-1,-1,-1,-1,66.3644481,5.518538641,71.88298674,-129.7474456,-1,-1,-1,-1
1.71E+12,128,128,-1,-1,-1,-1,66.36062364,5.520545937,71.88116957,-129.7562681,-1,-1,-1,-1
1.71E+12,128,128,-1,-1,-1,-1,66.35676803,5.522557395,71.87932542,-129.7652566,-1,-1,-1,-1
1.71E+12,128,128,-1,-1,-1,-1,66.35288757,5.524572166,71.87745974,-129.7744045,-1,-1,-1,-1
1.71E+12,128,128,-1,-1,-1,-1,66.34898854,5.52658942,71.87557795,-129.7837054,-1,-1,-1,-1
1.71E+12,128,128,-1,-1,-1,-1,66.34507714,5.528608356,71.87368549,-129.7931524,-1,-1,-1,-1
1.71E+12,128,128,-1,-1,-1,-1,66.34115958,5.530628189,71.87178777,-129.8027385,-1,-1,-1,-1
1.71E+12,128,128,-1,-1,-1,-1,66.33724201,5.532648158,71.86989016,-129.8124562,-1,-1,-1,-1
1.71E+12,128,128,-1,-1,-1,-1,66.33333053,5.53466751,71.86799804,-129.8222982,-1,-1,-1,-1
1.71E+12,128,128,-1,-1,-1,-1,66.32943123,5.536685489,71.86611672,-129.832257,-1,-1,-1,-1
1.71E+12,128,128,-1,-1,-1,-1,66.3255501,5.538701357,71.86425146,-129.8423246,-1,-1,-1,-1
1.71E+12,128,128,-1,-1,-1,-1,66.321693,5.540714433,71.86240744,-129.8524933,-1,-1,-1,-1
1.71E+12,128,128,-1,-1,-1,-1,66.31786562,5.542724078,71.8605897,-129.8627549,-1,-1,-1,-1
1.71E+12,128,128,-1,-1,-1,-1,66.3140735,5.544729661,71.85880316,-129.873101,-1,-1,-1,-1
1.71E+12,128,128,-1,-1,-1,-1,66.31032206,5.546730564,71.85705262,-129.8835232,-1,-1,-1,-1
1.71E+12,128,128,-1,-1,-1,-1,66.30661662,5.548726162,71.85534278,-129.8940131,-1,-1,-1,-1
1.71E+12,128,128,-1,-1,-1,-1,66.30296236,5.550715815,71.85367818,-129.9045619,-1,-1,-1,-1
1.71E+12,128,128,-1,-1,-1,-1,66.29936434,5.552698916,71.85206326,-129.9151608,-1,-1,-1,-1
1.71E+12,128,128,-1,-1,-1,-1,66.29582744,5.554674888,71.85050232,-129.9258009,-1,-1,-1,-1
1.71E+12,128,128,-1,-1,-1,-1,66.29235628,5.556643161,71.84899944,-129.9364734,-1,-1,-1,-1
1.71E+12,128,128,-1,-1,-1,-1,66.28895536,5.558603157,71.84755852,-129.9471693,-1,-1,-1,-1
1.71E+12,128,128,-1,-1,-1,-1,66.28562898,5.560554277,71.84618326,-129.9578797,-1,-1,-1,-1
1.71E+12,128,128,-1,-1,-1,-1,66.28238113,5.562495954,71.84487709,-129.9685956,-1,-1,-1,-1
1.71E+12,128,128,-1,-1,-1,-1,66.27921553,5.564427678,71.84364321,-129.979308,-1,-1,-1,-1
1.71E+12,128,128,-1,-1,-1,-1,66.2761357,5.566348965,71.84248467,-129.9900079,-1,-1,-1,-1
1.71E+12,128,128,-1,-1,-1,-1,66.27314496,5.568259361,71.84140432,-130.0006863,-1,-1,-1,-1
1.71E+12,128,128,-1,-1,-1,-1,66.27024641,5.570158435,71.84040484,-130.011334,-1,-1,-1,-1
1.71E+12,128,128,-1,-1,-1,-1,66.26744297,5.572045737,71.8394887,-130.0219419,-1,-1,-1,-1
1.71E+12,128,128,-1,-1,-1,-1,66.26473735,5.57392078,71.83865813,-130.0325011,-1,-1,-1,-1
1.71E+12,128,128,-1,-1,-1,-1,66.26213201,5.575783046,71.83791506,-130.0430026,-1,-1,-1,-1
1.71E+12,128,128,-1,-1,-1,-1,66.25962906,5.577632029,71.83726109,-130.0534374,-1,-1,-1,-1
1.71E+12,128,128,-1,-1,-1,-1,66.25723027,5.57946725,71.83669752,-130.0637967,-1,-1,-1,-1
1.71E+12,128,128,-1,-1,-1,-1,66.25493718,5.581288222,71.8362254,-130.0740718,-1,-1,-1,-1
1.71E+12,128,128,-1,-1,-1,-1,66.25275104,5.583094426,71.83584547,-130.0842542,-1,-1,-1,-1
1.71E+12,128,128,-1,-1,-1,-1,66.25067292,5.584885304,71.83555822,-130.0943352,-1,-1,-1,-1
1.71E+12,128,128,-1,-1,-1,-1,66.24870366,5.586660303,71.83536397,-130.1043066,-1,-1,-1,-1
1.71E+12,128,128,-1,-1,-1,-1,66.24684384,5.588418896,71.83526273,-130.1141602,-1,-1,-1,-1
1.71E+12,128,128,-1,-1,-1,-1,66.24509372,5.590160522,71.83525424,-130.1238881,-1,-1,-1,-1
1.71E+12,128,128,-1,-1,-1,-1,66.24345329,5.591884602,71.83533789,-130.1334827,-1,-1,-1,-1
1.71E+12,128,128,-1,-1,-1,-1,66.2419222,5.593590579,71.83551278,-130.1429364,-1,-1,-1,-1
1.71E+12,128,128,-1,-1,-1,-1,66.24049988,5.595277911,71.83577779,-130.1522418,-1,-1,-1,-1
1.71E+12,128,128,-1,-1,-1,-1,66.23918554,5.596946075,71.83613162,-130.1613918,-1,-1,-1,-1
1.71E+12,128,128,-1,-1,-1,-1,66.23797818,5.598594567,71.83657274,-130.1703795,-1,-1,-1,-1
1.71E+12,128,128,-1,-1,-1,-1,66.23687661,5.600222905,71.83709952,-130.1791981,-1,-1,-1,-1
1.71E+12,128,128,-1,-1,-1,-1,66.23587952,5.60183063,71.83771015,-130.1878412,-1,-1,-1,-1
1.71E+12,128,128,-1,-1,-1,-1,66.23498527,5.6034173,71.83840257,-130.1963025,-1,-1,-1,-1
1.71E+12,128,128,-1,-1,-1,-1,66.23419199,5.604982455,71.83917444,-130.2045758,-1,-1,-1,-1
1.71E+12,128,128,-1,-1,-1,-1,66.23349758,5.606525604,71.84002319,-130.2126553,-1,-1,-1,-1
1.71E+12,128,128,-1,-1,-1,-1,66.23289985,5.608046247,71.84094609,-130.2205355,-1,-1,-1,-1
1.71E+12,128,128,-1,-1,-1,-1,66.23239643,5.609543884,71.84194031,-130.228211,-1,-1,-1,-1
1.71E+12,128,128,-1,-1,-1,-1,66.23198482,5.611018026,71.84300285,-130.2356768,-1,-1,-1,-1
1.71E+12,128,128,-1,-1,-1,-1,66.2316624,5.61246819,71.84413059,-130.2429282,-1,-1,-1,-1
1.71E+12,128,128,-1,-1,-1,-1,66.23142642,5.613893859,71.84532028,-130.2499608,-1,-1,-1,-1
1.71E+12,128,128,-1,-1,-1,-1,66.23127404,5.615294512,71.84656855,-130.2567706,-1,-1,-1,-1
1.71E+12,128,128,-1,-1,-1,-1,66.23120231,5.616669635,71.84787194,-130.2633537,-1,-1,-1,-1
1.71E+12,128,128,-1,-1,-1,-1,66.23120814,5.618018713,71.84922685,-130.2697068,-1,-1,-1,-1
1.71E+12,128,128,-1,-1,-1,-1,66.23128831,5.619341227,71.85062954,-130.2758267,-1,-1,-1,-1
1.71E+12,128,128,-1,-1,-1,-1,66.23143947,5.620636695,71.85207617,-130.2817106,-1,-1,-1,-1
1.71E+12,128,128,-1,-1,-1,-1,66.23165817,5.621904696,71.85356286,-130.287356,-1,-1,-1,-1
1.71E+12,128,128,-1,-1,-1,-1,66.23194092,5.623144846,71.85508577,-130.2927607,-1,-1,-1,-1
1.71E+12,128,128,-1,-1,-1,-1,66.23228426,5.624356798,71.85664106,-130.2979227,-1,-1,-1,-1
1.71E+12,128,128,-1,-1,-1,-1,66.23268467,5.62554024,71.85822491,-130.3028405,-1,-1,-1,-1
1.71E+12,128,128,-1,-1,-1,-1,66.23313861,5.626694859,71.85983347,-130.3075129,-1,-1,-1,-1
1.71E+12,128,128,-1,-1,-1,-1,66.23364249,5.627820332,71.86146282,-130.3119386,-1,-1,-1,-1
1.71E+12,128,128,-1,-1,-1,-1,66.23419271,5.628916321,71.86310903,-130.3161171,-1,-1,-1,-1
1.71E+12,128,128,-1,-1,-1,-1,66.23478564,5.629982493,71.86476813,-130.3200477,-1,-1,-1,-1
1.71E+12,128,128,-1,-1,-1,-1,66.2354177,5.631018518,71.86643622,-130.3237306,-1,-1,-1,-1
1.71E+12,128,128,-1,-1,-1,-1,66.23608532,5.632024095,71.86810942,-130.3271657,-1,-1,-1,-1
1.71E+12,128,128,-1,-1,-1,-1,66.23678492,5.632998951,71.86978387,-130.3303537,-1,-1,-1,-1
1.71E+12,128,128,-1,-1,-1,-1,66.237513,5.633942828,71.87145583,-130.3332952,-1,-1,-1,-1
1.71E+12,128,128,-1,-1,-1,-1,66.23826614,5.634855461,71.8731216,-130.3359912,-1,-1,-1,-1
1.71E+12,128,128,-1,-1,-1,-1,66.23904101,5.635736552,71.87477756,-130.3384433,-1,-1,-1,-1
1.71E+12,128,128,-1,-1,-1,-1,66.23983435,5.636585803,71.87642015,-130.3406529,-1,-1,-1,-1
1.71E+12,128,128,-1,-1,-1,-1,66.24064291,5.637402941,71.87804585,-130.3426221,-1,-1,-1,-1
1.71E+12,128,128,-1,-1,-1,-1,66.24146354,5.638187728,71.87965127,-130.3443531,-1,-1,-1,-1
1.71E+12,128,128,-1,-1,-1,-1,66.24229318,5.638939957,71.88123314,-130.3458483,-1,-1,-1,-1
1.71E+12,128,128,-1,-1,-1,-1,66.24312886,5.639659445,71.88278831,-130.3471105,-1,-1,-1,-1
1.71E+12,128,128,-1,-1,-1,-1,66.24396776,5.64034605,71.8843138,-130.3481429,-1,-1,-1,-1
1.71E+12,128,128,-1,-1,-1,-1,66.24480716,5.64099973,71.88580689,-130.3489486,-1,-1,-1,-1
1.71E+12,128,128,-1,-1,-1,-1,66.2456444,5.641620526,71.88726493,-130.349531,-1,-1,-1,-1
1.71E+12,128,128,-1,-1,-1,-1,66.24647683,5.642208462,71.8886853,-130.349894,-1,-1,-1,-1
1.71E+12,128,128,-1,-1,-1,-1,66.24730195,5.642763501,71.89006546,-130.3500417,-1,-1,-1,-1
1.71E+12,128,128,-1,-1,-1,-1,66.24811739,5.643285559,71.89140295,-130.3499784,-1,-1,-1,-1
1.71E+12,128,128,-1,-1,-1,-1,66.2489209,5.643774521,71.89269542,-130.3497088,-1,-1,-1,-1
1.71E+12,128,128,-1,-1,-1,-1,66.2497105,5.644230123,71.89394062,-130.3492377,-1,-1,-1,-1
1.71E+12,128,128,-1,-1,-1,-1,66.25048449,5.644651853,71.89513634,-130.34857,-1,-1,-1,-1
1.71E+12,128,128,-1,-1,-1,-1,66.25124146,5.645038948,71.89628041,-130.347711,-1,-1,-1,-1
1.71E+12,128,128,-1,-1,-1,-1,66.25198027,5.64539044,71.89737071,-130.3466659,-1,-1,-1,-1
1.71E+12,128,128,-1,-1,-1,-1,66.2527,5.645705215,71.89840522,-130.3454405,-1,-1,-1,-1
1.71E+12,128,128,-1,-1,-1,-1,66.25340011,5.645982088,71.8993822,-130.3440403,-1,-1,-1,-1
1.71E+12,128,128,-1,-1,-1,-1,66.25408036,5.646219762,71.90030012,-130.3424713,-1,-1,-1,-1
1.71E+12,128,128,-1,-1,-1,-1,66.25474086,5.646416842,71.9011577,-130.3407395,-1,-1,-1,-1
1.71E+12,128,128,-1,-1,-1,-1,66.25538208,5.64657197,71.90195405,-130.3388509,-1,-1,-1,-1
1.71E+12,128,128,-1,-1,-1,-1,66.25600479,5.646683948,71.90268874,-130.3368115,-1,-1,-1,-1
1.71E+12,128,128,-1,-1,-1,-1,66.2566101,5.646751922,71.90336202,-130.3346274,-1,-1,-1,-1
1.71E+12,128,128,-1,-1,-1,-1,66.25719945,5.64677535,71.9039748,-130.3323047,-1,-1,-1,-1
1.71E+12,128,128,-1,-1,-1,-1,66.25777471,5.646753857,71.90452856,-130.3298498,-1,-1,-1,-1
1.71E+12,128,128,-1,-1,-1,-1,66.25833784,5.646687547,71.90502539,-130.3272689,-1,-1,-1,-1
1.71E+12,128,128,-1,-1,-1,-1,66.25889066,5.64657746,71.90546812,-130.3245683,-1,-1,-1,-1
1.71E+12,128,128,-1,-1,-1,-1,66.25943457,5.646425883,71.90586045,-130.3217542,-1,-1,-1,-1
1.71E+12,128,128,-1,-1,-1,-1,66.25997034,5.646236632,71.90620697,-130.3188328,-1,-1,-1,-1
1.71E+12,128,128,-1,-1,-1,-1,66.26049826,5.646014633,71.9065129,-130.3158105,-1,-1,-1,-1
1.71E+12,128,128,-1,-1,-1,-1,66.26101862,5.645765171,71.90678379,-130.3126937,-1,-1,-1,-1
1.71E+12,128,128,-1,-1,-1,-1,66.2615317,5.645493313,71.90702502,-130.3094886,-1,-1,-1,-1
1.71E+12,128,128,-1,-1,-1,-1,66.26203784,5.645203682,71.90724152,-130.3062015,-1,-1,-1,-1
1.71E+12,128,128,-1,-1,-1,-1,66.26253733,5.644900536,71.90743787,-130.3028388,-1,-1,-1,-1
1.71E+12,128,128,-1,-1,-1,-1,66.26303031,5.644587776,71.90761809,-130.2994072,-1,-1,-1,-1
1.71E+12,128,128,-1,-1,-1,-1,66.26351676,5.644269111,71.90778588,-130.2959134,-1,-1,-1,-1
1.71E+12,128,128,-1,-1,-1,-1,66.26399651,5.643948204,71.90794472,-130.2923643,-1,-1,-1,-1
1.71E+12,128,128,-1,-1,-1,-1,66.26446939,5.643628448,71.90809784,-130.2887667,-1,-1,-1,-1
1.71E+12,128,128,-1,-1,-1,-1,66.26493548,5.643312939,71.90824842,-130.2851275,-1,-1,-1,-1
1.71E+12,128,128,-1,-1,-1,-1,66.26539509,5.643004588,71.90839967,-130.2814537,-1,-1,-1,-1
1.71E+12,128,128,-1,-1,-1,-1,66.26584874,5.642706112,71.90855486,-130.2777522,-1,-1,-1,-1
1.71E+12,128,128,-1,-1,-1,-1,66.26629722,5.642420093,71.90871731,-130.2740299,-1,-1,-1,-1
1.71E+12,128,128,-1,-1,-1,-1,66.26674142,5.642149025,71.90889045,-130.2702936,-1,-1,-1,-1
1.71E+12,128,128,-1,-1,-1,-1,66.26718252,5.64189531,71.90907783,-130.2665499,-1,-1,-1,-1
1.71E+12,128,128,-1,-1,-1,-1,66.26762186,5.641661222,71.90928308,-130.2628053,-1,-1,-1,-1
1.71E+12,128,128,-1,-1,-1,-1,66.2680611,5.641448864,71.90950996,-130.2590662,-1,-1,-1,-1
1.71E+12,128,128,-1,-1,-1,-1,66.26850208,5.641260316,71.9097624,-130.255339,-1,-1,-1,-1
1.71E+12,128,128,-1,-1,-1,-1,66.26894664,5.641097811,71.91004445,-130.2516297,-1,-1,-1,-1
1.71E+12,128,128,-1,-1,-1,-1,66.26939651,5.640963746,71.91036026,-130.2479442,-1,-1,-1,-1
1.71E+12,128,128,-1,-1,-1,-1,66.26985339,5.640860664,71.91071405,-130.2442881,-1,-1,-1,-1
1.71E+12,128,128,-1,-1,-1,-1,66.27031881,5.640791222,71.91111003,-130.240667,-1,-1,-1,-1
1.71E+12,128,128,-1,-1,-1,-1,66.27079415,5.640758155,71.9115523,-130.237086,-1,-1,-1,-1
1.71E+12,128,128,-1,-1,-1,-1,66.2712807,5.64076429,71.91204499,-130.2335505,-1,-1,-1,-1
1.71E+12,128,128,-1,-1,-1,-1,66.27177963,5.640812598,71.91259223,-130.2300655,-1,-1,-1,-1
1.71E+12,128,128,-1,-1,-1,-1,66.27229186,5.640906168,71.91319803,-130.2266355,-1,-1,-1,-1
1.71E+12,128,128,-1,-1,-1,-1,66.27281826,5.641048166,71.91386642,-130.2232651,-1,-1,-1,-1
1.71E+12,128,128,-1,-1,-1,-1,66.27335963,5.641241765,71.91460139,-130.2199587,-1,-1,-1,-1
1.71E+12,128,128,-1,-1,-1,-1,66.27391668,5.641490102,71.91540678,-130.2167203,-1,-1,-1,-1
1.71E+12,128,128,-1,-1,-1,-1,66.27449001,5.641796207,71.91628622,-130.2135541,-1,-1,-1,-1
1.71E+12,128,128,-1,-1,-1,-1,66.27508015,5.642162984,71.91724314,-130.2104637,-1,-1,-1,-1
1.71E+12,128,128,-1,-1,-1,-1,66.27568751,5.64259328,71.91828079,-130.2074527,-1,-1,-1,-1
1.71E+12,128,128,-1,-1,-1,-1,66.27631236,5.643089884,71.91940225,-130.2045245,-1,-1,-1,-1
1.71E+12,128,128,-1,-1,-1,-1,66.27695483,5.643655537,71.92061037,-130.2016824,-1,-1,-1,-1
1.71E+12,128,128,-1,-1,-1,-1,66.27761494,5.644292955,71.9219079,-130.1989294,-1,-1,-1,-1
1.71E+12,128,128,-1,-1,-1,-1,66.27829264,5.645004748,71.92329739,-130.1962681,-1,-1,-1,-1
1.71E+12,128,128,-1,-1,-1,-1,66.27898772,5.645793381,71.92478111,-130.1937012,-1,-1,-1,-1
1.71E+12,128,128,-1,-1,-1,-1,66.27969995,5.646661188,71.92636114,-130.1912311,-1,-1,-1,-1
1.71E+12,128,128,-1,-1,-1,-1,66.280429,5.647610361,71.92803936,-130.1888601,-1,-1,-1,-1
1.71E+12,128,128,-1,-1,-1,-1,66.2811744,5.648642918,71.92981731,-130.1865902,-1,-1,-1,-1
1.71E+12,128,128,-1,-1,-1,-1,66.28193561,5.64976065,71.93169626,-130.1844236,-1,-1,-1,-1
1.71E+12,128,128,-1,-1,-1,-1,66.28271205,5.650965096,71.93367714,-130.1823618,-1,-1,-1,-1
1.71E+12,128,128,-1,-1,-1,-1,66.28350315,5.652257561,71.93576071,-130.1804067,-1,-1,-1,-1
1.71E+12,128,128,-1,-1,-1,-1,66.28430834,5.653639123,71.93794747,-130.1785595,-1,-1,-1,-1
1.71E+12,128,128,-1,-1,-1,-1,66.28512704,5.655110618,71.94023766,-130.1768216,-1,-1,-1,-1
1.71E+12,128,128,-1,-1,-1,-1,66.28595861,5.656672599,71.94263121,-130.1751939,-1,-1,-1,-1
1.71E+12,128,128,-1,-1,-1,-1,66.28680243,5.65832532,71.94512775,-130.1736777,-1,-1,-1,-1
1.71E+12,128,128,-1,-1,-1,-1,66.2876578,5.66006878,71.94772658,-130.1722736,-1,-1,-1,-1
1.71E+12,128,128,-1,-1,-1,-1,66.28852392,5.661902752,71.95042667,-130.1709823,-1,-1,-1,-1
1.71E+12,128,128,-1,-1,-1,-1,66.28939993,5.663826735,71.95322667,-130.1698042,-1,-1,-1,-1
1.71E+12,128,128,-1,-1,-1,-1,66.29028504,5.665839967,71.956125,-130.1687396,-1,-1,-1,-1
1.71E+12,128,128,-1,-1,-1,-1,66.29117848,5.667941429,71.95911991,-130.1677885,-1,-1,-1,-1
1.71E+12,128,128,-1,-1,-1,-1,66.2920795,5.670129821,71.96220932,-130.166951,-1,-1,-1,-1
1.71E+12,128,128,-1,-1,-1,-1,66.29298735,5.672403501,71.96539085,-130.1662267,-1,-1,-1,-1
1.71E+12,128,128,-1,-1,-1,-1,66.2939013,5.674760463,71.96866176,-130.1656153,-1,-1,-1,-1
1.71E+12,128,128,-1,-1,-1,-1,66.29482067,5.677198381,71.97201905,-130.1651162,-1,-1,-1,-1
1.71E+12,128,128,-1,-1,-1,-1,66.29574479,5.679714605,71.97545939,-130.1647284,-1,-1,-1,-1
1.71E+12,128,128,-1,-1,-1,-1,66.29667306,5.682306138,71.9789792,-130.1644512,-1,-1,-1,-1
1.71E+12,128,128,-1,-1,-1,-1,66.29760502,5.684969639,71.98257466,-130.1642832,-1,-1,-1,-1
1.71E+12,128,128,-1,-1,-1,-1,66.29854025,5.687701455,71.98624171,-130.1642232,-1,-1,-1,-1
1.71E+12,128,128,-1,-1,-1,-1,66.29947841,5.690497629,71.98997604,-130.1642696,-1,-1,-1,-1
1.71E+12,128,128,-1,-1,-1,-1,66.30041926,5.693353905,71.99377316,-130.1644208,-1,-1,-1,-1
1.71E+12,128,128,-1,-1,-1,-1,66.30136262,5.696265772,71.9976284,-130.164675,-1,-1,-1,-1
1.71E+12,128,128,-1,-1,-1,-1,66.30230847,5.699228484,72.00153695,-130.1650302,-1,-1,-1,-1
1.71E+12,128,128,-1,-1,-1,-1,66.30325685,5.702237068,72.00549392,-130.1654843,-1,-1,-1,-1
1.71E+12,128,128,-1,-1,-1,-1,66.30420782,5.705286327,72.00949415,-130.1660352,-1,-1,-1,-1
1.71E+12,128,128,-1,-1,-1,-1,66.30516148,5.70837084,72.01353232,-130.1666807,-1,-1,-1,-1
1.71E+12,128,128,-1,-1,-1,-1,66.30611805,5.711484985,72.01760304,-130.1674182,-1,-1,-1,-1
1.71E+12,128,128,-1,-1,-1,-1,66.30707788,5.714622992,72.02170087,-130.1682454,-1,-1,-1,-1
1.71E+12,128,128,-1,-1,-1,-1,66.30804142,5.717778921,72.02582034,-130.1691597,-1,-1,-1,-1
1.71E+12,128,128,-1,-1,-1,-1,66.30900926,5.72094661,72.02995587,-130.1701583,-1,-1,-1,-1
1.71E+12,128,128,-1,-1,-1,-1,66.30998208,5.724119692,72.03410177,-130.1712385,-1,-1,-1,-1
1.71E+12,128,128,-1,-1,-1,-1,66.31096067,5.727291614,72.03825229,-130.1723972,-1,-1,-1,-1
1.71E+12,128,128,-1,-1,-1,-1,66.3119459,5.730455671,72.04240157,-130.1736316,-1,-1,-1,-1
1.71E+12,128,128,-1,-1,-1,-1,66.31293877,5.73360509,72.04654386,-130.1749384,-1,-1,-1,-1
1.71E+12,128,128,-1,-1,-1,-1,66.31394039,5.736733067,72.05067346,-130.1763146,-1,-1,-1,-1
1.71E+12,128,128,-1,-1,-1,-1,66.31495206,5.739832727,72.05478478,-130.1777568,-1,-1,-1,-1
1.71E+12,128,128,-1,-1,-1,-1,66.31597517,5.742897112,72.05887228,-130.1792617,-1,-1,-1,-1
1.71E+12,128,128,-1,-1,-1,-1,66.31701128,5.745919179,72.06293045,-130.180826,-1,-1,-1,-1
1.71E+12,128,128,-1,-1,-1,-1,66.31806204,5.74889184,72.06695388,-130.1824464,-1,-1,-1,-1
1.71E+12,128,128,-1,-1,-1,-1,66.31912924,5.751807996,72.07093724,-130.1841195,-1,-1,-1,-1
1.71E+12,128,128,-1,-1,-1,-1,66.3202147,5.754660557,72.07487526,-130.1858416,-1,-1,-1,-1
1.71E+12,128,128,-1,-1,-1,-1,66.32132033,5.757442483,72.07876282,-130.1876096,-1,-1,-1,-1
1.71E+12,128,128,-1,-1,-1,-1,66.3224481,5.760146807,72.0825949,-130.1894198,-1,-1,-1,-1
1.71E+12,128,128,-1,-1,-1,-1,66.32360002,5.762766678,72.0863667,-130.1912691,-1,-1,-1,-1
1.71E+12,128,128,-1,-1,-1,-1,66.32477825,5.765295418,72.09007367,-130.193154,-1,-1,-1,-1
1.71E+12,128,128,-1,-1,-1,-1,66.32598502,5.767726436,72.09371146,-130.195071,-1,-1,-1,-1
1.71E+12,128,128,-1,-1,-1,-1,66.32722269,5.770053236,72.09727592,-130.1970169,-1,-1,-1,-1
1.71E+12,128,128,-1,-1,-1,-1,66.32849364,5.772269486,72.10076313,-130.198988,-1,-1,-1,-1
1.71E+12,128,128,-1,-1,-1,-1,66.3298004,5.774369037,72.10416943,-130.2009809,-1,-1,-1,-1
1.71E+12,128,128,-1,-1,-1,-1,66.33114555,5.77634595,72.1074915,-130.2029923,-1,-1,-1,-1
1.71E+12,128,128,-1,-1,-1,-1,66.33253175,5.778194493,72.11072624,-130.2050189,-1,-1,-1,-1
1.71E+12,128,128,-1,-1,-1,-1,66.33396172,5.779909154,72.11387087,-130.2070573,-1,-1,-1,-1
1.71E+12,128,128,-1,-1,-1,-1,66.33543827,5.781484668,72.11692294,-130.2091043,-1,-1,-1,-1
1.71E+12,128,128,-1,-1,-1,-1,66.33696424,5.782916032,72.11988027,-130.2111565,-1,-1,-1,-1
1.71E+12,128,128,-1,-1,-1,-1,66.33854248,5.784198588,72.12274107,-130.2132107,-1,-1,-1,-1
1.71E+12,128,128,-1,-1,-1,-1,66.34017593,5.78532805,72.12550398,-130.2152637,-1,-1,-1,-1
1.71E+12,128,128,-1,-1,-1,-1,66.34186755,5.78630042,72.12816797,-130.2173124,-1,-1,-1,-1
1.71E+12,128,128,-1,-1,-1,-1,66.34362024,5.787112035,72.13073227,-130.2193538,-1,-1,-1,-1
1.71E+12,128,128,-1,-1,-1,-1,66.34543682,5.787759651,72.13319647,-130.2213849,-1,-1,-1,-1
1.71E+12,128,128,-1,-1,-1,-1,66.34732003,5.788240429,72.13556046,-130.2234031,-1,-1,-1,-1
1.71E+12,128,128,-1,-1,-1,-1,66.34927252,5.788551905,72.13782443,-130.2254054,-1,-1,-1,-1
1.71E+12,128,128,-1,-1,-1,-1,66.35129694,5.788691988,72.13998893,-130.2273894,-1,-1,-1,-1
1.71E+12,128,128,-1,-1,-1,-1,66.35339596,5.788658973,72.14205493,-130.2293522,-1,-1,-1,-1
1.71E+12,128,128,-1,-1,-1,-1,66.35557224,5.788451547,72.14402378,-130.2312916,-1,-1,-1,-1
1.71E+12,128,128,-1,-1,-1,-1,66.35782837,5.788068789,72.14589715,-130.2332049,-1,-1,-1,-1
1.71E+12,128,128,-1,-1,-1,-1,66.3601669,5.78751015,72.14767705,-130.23509,-1,-1,-1,-1
1.71E+12,128,128,-1,-1,-1,-1,66.36259026,5.786775446,72.1493657,-130.2369447,-1,-1,-1,-1
1.71E+12,128,128,-1,-1,-1,-1,66.36510075,5.785864874,72.15096563,-130.2387668,-1,-1,-1,-1
1.71E+12,128,128,-1,-1,-1,-1,66.36770058,5.784779021,72.1524796,-130.2405544,-1,-1,-1,-1
1.71E+12,128,128,-1,-1,-1,-1,66.37039189,5.783518827,72.15391072,-130.2423056,-1,-1,-1,-1
1.71E+12,128,128,-1,-1,-1,-1,66.37317677,5.782085595,72.15526236,-130.2440189,-1,-1,-1,-1
1.71E+12,128,128,-1,-1,-1,-1,66.3760572,5.780480995,72.15653819,-130.2456927,-1,-1,-1,-1
1.71E+12,128,128,-1,-1,-1,-1,66.37903503,5.778707065,72.15774209,-130.2473256,-1,-1,-1,-1
1.71E+12,128,128,-1,-1,-1,-1,66.38211191,5.776766267,72.15887818,-130.2489165,-1,-1,-1,-1
1.71E+12,128,128,-1,-1,-1,-1,66.38528937,5.774661486,72.15995085,-130.2504642,-1,-1,-1,-1
1.71E+12,128,128,-1,-1,-1,-1,66.38856875,5.772395939,72.16096469,-130.2519678,-1,-1,-1,-1
1.71E+12,128,128,-1,-1,-1,-1,66.3919512,5.76997318,72.16192438,-130.2534262,-1,-1,-1,-1
1.71E+12,128,128,-1,-1,-1,-1,66.39543767,5.767397127,72.16283479,-130.2548388,-1,-1,-1,-1
1.71E+12,128,128,-1,-1,-1,-1,66.39902891,5.764672061,72.16370097,-130.2562049,-1,-1,-1,-1
1.71E+12,128,128,-1,-1,-1,-1,66.40272552,5.761802623,72.16452814,-130.2575239,-1,-1,-1,-1
1.71E+12,128,128,-1,-1,-1,-1,66.40652795,5.758793743,72.16532169,-130.2587955,-1,-1,-1,-1
1.71E+12,128,128,-1,-1,-1,-1,66.41043653,5.755650592,72.16608712,-130.2600196,-1,-1,-1,-1
1.71E+12,128,128,-1,-1,-1,-1,66.41445139,5.752378593,72.16682998,-130.2611961,-1,-1,-1,-1
1.71E+12,128,128,-1,-1,-1,-1,66.41857244,5.748983363,72.1675558,-130.2623256,-1,-1,-1,-1
1.71E+12,128,128,-1,-1,-1,-1,66.42279938,5.745470684,72.16827006,-130.2634084,-1,-1,-1,-1
1.71E+12,128,128,-1,-1,-1,-1,66.42713171,5.741846507,72.16897821,-130.2644453,-1,-1,-1,-1
1.71E+12,128,128,-1,-1,-1,-1,66.43156866,5.738116964,72.16968563,-130.2654368,-1,-1,-1,-1
1.71E+12,128,128,-1,-1,-1,-1,66.43610926,5.734288391,72.17039765,-130.266384,-1,-1,-1,-1
1.71E+12,128,128,-1,-1,-1,-1,66.44075239,5.730367272,72.17111966,-130.2672879,-1,-1,-1,-1
1.71E+12,128,128,-1,-1,-1,-1,66.44549679,5.726360234,72.17185702,-130.2681497,-1,-1,-1,-1
1.71E+12,128,128,-1,-1,-1,-1,66.45034098,5.722274054,72.17261504,-130.2689708,-1,-1,-1,-1
1.71E+12,128,128,-1,-1,-1,-1,66.4552833,5.718115669,72.17339897,-130.269753,-1,-1,-1,-1
1.71E+12,128,128,-1,-1,-1,-1,66.46032182,5.713892132,72.17421395,-130.270498,-1,-1,-1,-1
1.71E+12,128,128,-1,-1,-1,-1,66.46545438,5.70961058,72.17506496,-130.2712075,-1,-1,-1,-1
1.71E+12,128,128,-1,-1,-1,-1,66.47067855,5.705278206,72.17595676,-130.2718838,-1,-1,-1,-1
1.71E+12,128,128,-1,-1,-1,-1,66.47599177,5.7009022,72.17689397,-130.2725291,-1,-1,-1,-1
1.71E+12,128,128,-1,-1,-1,-1,66.48139131,5.696489693,72.177881,-130.2731455,-1,-1,-1,-1
1.71E+12,128,128,-1,-1,-1,-1,66.48687433,5.692047753,72.17892208,-130.2737356,-1,-1,-1,-1
1.71E+12,128,128,-1,-1,-1,-1,66.49243787,5.687583396,72.18002126,-130.2743019,-1,-1,-1,-1
1.71E+12,128,128,-1,-1,-1,-1,66.49807875,5.683103557,72.1811823,-130.274847,-1,-1,-1,-1
1.71E+12,128,128,-1,-1,-1,-1,66.50379355,5.678615058,72.18240861,-130.2753738,-1,-1,-1,-1
1.71E+12,128,128,-1,-1,-1,-1,66.50957861,5.67412461,72.18370322,-130.2758852,-1,-1,-1,-1
1.71E+12,128,128,-1,-1,-1,-1,66.51543004,5.669638821,72.18506886,-130.2763844,-1,-1,-1,-1
1.71E+12,128,128,-1,-1,-1,-1,66.52134385,5.665164175,72.18650803,-130.2768745,-1,-1,-1,-1
1.71E+12,128,128,-1,-1,-1,-1,66.52731597,5.660707023,72.18802299,-130.2773588,-1,-1,-1,-1
1.71E+12,128,128,-1,-1,-1,-1,66.53334216,5.656273565,72.18961573,-130.2778407,-1,-1,-1,-1
1.71E+12,128,128,-1,-1,-1,-1,66.53941807,5.651869828,72.1912879,-130.2783234,-1,-1,-1,-1
1.71E+12,128,128,-1,-1,-1,-1,66.54553917,5.64750166,72.19304083,-130.2788107,-1,-1,-1,-1
1.71E+12,128,128,-1,-1,-1,-1,66.55170079,5.64317469,72.19487548,-130.2793059,-1,-1,-1,-1
1.71E+12,128,128,-1,-1,-1,-1,66.55789816,5.638894299,72.19679246,-130.2798129,-1,-1,-1,-1
1.71E+12,128,128,-1,-1,-1,-1,66.56412634,5.634665656,72.198792,-130.2803355,-1,-1,-1,-1
1.71E+12,128,128,-1,-1,-1,-1,66.57038024,5.6304937,72.20087394,-130.2808773,-1,-1,-1,-1
1.71E+12,128,128,-1,-1,-1,-1,66.57665465,5.626383115,72.20303777,-130.2814422,-1,-1,-1,-1
1.71E+12,128,128,-1,-1,-1,-1,66.58294427,5.622338301,72.20528257,-130.282034,-1,-1,-1,-1
1.71E+12,128,128,-1,-1,-1,-1,66.58924373,5.618363402,72.20760713,-130.2826567,-1,-1,-1,-1
1.71E+12,128,128,-1,-1,-1,-1,66.59554766,5.614462311,72.21000997,-130.2833139,-1,-1,-1,-1
1.71E+12,128,128,-1,-1,-1,-1,66.60185054,5.610638609,72.21248915,-130.2840097,-1,-1,-1,-1
1.71E+12,128,128,-1,-1,-1,-1,66.60814681,5.606895572,72.21504238,-130.2847477,-1,-1,-1,-1
1.71E+12,128,128,-1,-1,-1,-1,66.61443086,5.603236142,72.217667,-130.2855317,-1,-1,-1,-1
1.71E+12,128,128,-1,-1,-1,-1,66.62069697,5.599662928,72.2203599,-130.2863653,-1,-1,-1,-1
1.71E+12,128,128,-1,-1,-1,-1,66.62693937,5.596178251,72.22311762,-130.2872524,-1,-1,-1,-1
1.71E+12,128,128,-1,-1,-1,-1,66.63315225,5.592784194,72.22593644,-130.2881966,-1,-1,-1,-1
1.71E+12,128,128,-1,-1,-1,-1,66.63932979,5.589482633,72.22881242,-130.2892014,-1,-1,-1,-1
1.71E+12,128,128,-1,-1,-1,-1,66.64546625,5.586275175,72.23174142,-130.2902705,-1,-1,-1,-1
1.71E+12,128,128,-1,-1,-1,-1,66.65155584,5.583163122,72.23471896,-130.2914073,-1,-1,-1,-1
1.71E+12,128,128,-1,-1,-1,-1,66.65759276,5.58014751,72.23774027,-130.2926153,-1,-1,-1,-1
1.71E+12,128,128,-1,-1,-1,-1,66.66357127,5.577229128,72.2408004,-130.2938977,-1,-1,-1,-1
1.71E+12,128,128,-1,-1,-1,-1,66.66948562,5.574408497,72.24389412,-130.295258,-1,-1,-1,-1
1.71E+12,128,128,-1,-1,-1,-1,66.67533001,5.571685894,72.2470159,-130.2966991,-1,-1,-1,-1
1.71E+12,128,128,-1,-1,-1,-1,66.68109872,5.569061381,72.2501601,-130.2982242,-1,-1,-1,-1
1.71E+12,128,128,-1,-1,-1,-1,66.6867861,5.566534801,72.2533209,-130.2998363,-1,-1,-1,-1
1.71E+12,128,128,-1,-1,-1,-1,66.69238665,5.564105783,72.25649243,-130.3015384,-1,-1,-1,-1
1.71E+12,128,128,-1,-1,-1,-1,66.69789499,5.561773711,72.2596687,-130.303333,-1,-1,-1,-1
1.71E+12,128,128,-1,-1,-1,-1,66.70330582,5.559537723,72.26284354,-130.3052231,-1,-1,-1,-1
1.71E+12,128,128,-1,-1,-1,-1,66.70861396,5.557396725,72.26601069,-130.3072111,-1,-1,-1,-1
1.71E+12,128,128,-1,-1,-1,-1,66.71381433,5.555349424,72.26916376,-130.3092996,-1,-1,-1,-1
1.71E+12,128,128,-1,-1,-1,-1,66.71890193,5.553394364,72.27229629,-130.3114908,-1,-1,-1,-1
1.71E+12,128,128,-1,-1,-1,-1,66.7238719,5.551529935,72.27540184,-130.3137872,-1,-1,-1,-1
1.71E+12,128,128,-1,-1,-1,-1,66.7287196,5.549754417,72.27847402,-130.3161909,-1,-1,-1,-1
1.71E+12,128,128,-1,-1,-1,-1,66.73344052,5.548066012,72.28150654,-130.3187038,-1,-1,-1,-1
1.71E+12,128,128,-1,-1,-1,-1,66.7380303,5.546462892,72.28449319,-130.3213277,-1,-1,-1,-1
1.71E+12,128,128,-1,-1,-1,-1,66.74248474,5.544943212,72.28742795,-130.3240645,-1,-1,-1,-1
1.71E+12,128,128,-1,-1,-1,-1,66.74679975,5.54350518,72.29030493,-130.3269158,-1,-1,-1,-1
1.71E+12,128,128,-1,-1,-1,-1,66.75097122,5.542147171,72.29311839,-130.3298833,-1,-1,-1,-1
1.71E+12,128,128,-1,-1,-1,-1,66.75499501,5.540867779,72.29586279,-130.3329683,-1,-1,-1,-1
1.71E+12,128,128,-1,-1,-1,-1,66.75886702,5.539665822,72.29853284,-130.336172,-1,-1,-1,-1
1.71E+12,128,128,-1,-1,-1,-1,66.76258322,5.538540274,72.3011235,-130.3394953,-1,-1,-1,-1
1.71E+12,128,128,-1,-1,-1,-1,66.76613965,5.537490169,72.30362982,-130.3429392,-1,-1,-1,-1
1.71E+12,128,128,-1,-1,-1,-1,66.76953245,5.536514667,72.30604712,-130.3465044,-1,-1,-1,-1
1.71E+12,128,128,-1,-1,-1,-1,66.77275782,5.535613078,72.3083709,-130.3501914,-1,-1,-1,-1
1.71E+12,128,128,-1,-1,-1,-1,66.77581199,5.534784749,72.31059674,-130.3540012,-1,-1,-1,-1
1.71E+12,128,128,-1,-1,-1,-1,66.7786912,5.534028962,72.31272017,-130.3579344,-1,-1,-1,-1
1.71E+12,128,128,-1,-1,-1,-1,66.78139178,5.533344778,72.31473656,-130.3619914,-1,-1,-1,-1
1.71E+12,128,128,-1,-1,-1,-1,66.78391007,5.532731068,72.31664114,-130.3661728,-1,-1,-1,-1
1.71E+12,128,128,-1,-1,-1,-1,66.78624238,5.532186606,72.31842898,-130.370479,-1,-1,-1,-1
1.71E+12,128,128,-1,-1,-1,-1,66.78838523,5.531709807,72.32009504,-130.3749103,-1,-1,-1,-1
1.71E+12,128,128,-1,-1,-1,-1,66.79033577,5.53129837,72.32163414,-130.3794672,-1,-1,-1,-1
1.71E+12,128,128,-1,-1,-1,-1,66.79209195,5.530948909,72.32304086,-130.38415,-1,-1,-1,-1
1.71E+12,128,128,-1,-1,-1,-1,66.79365268,5.530656655,72.32430933,-130.388959,-1,-1,-1,-1
1.71E+12,128,128,-1,-1,-1,-1,66.79501767,5.530415884,72.32543355,-130.3938947,-1,-1,-1,-1
1.71E+12,128,128,-1,-1,-1,-1,66.7961871,5.530220696,72.32640779,-130.3989574,-1,-1,-1,-1
1.71E+12,128,128,-1,-1,-1,-1,66.79716149,5.530065621,72.32722711,-130.4041478,-1,-1,-1,-1
1.71E+12,128,128,-1,-1,-1,-1,66.7979416,5.529945883,72.32788748,-130.4094662,-1,-1,-1,-1
1.71E+12,128,128,-1,-1,-1,-1,66.79852848,5.529857319,72.3283858,-130.414913,-1,-1,-1,-1
1.71E+12,128,128,-1,-1,-1,-1,66.79892367,5.52979636,72.32872003,-130.4204883,-1,-1,-1,-1
1.71E+12,128,128,-1,-1,-1,-1,66.79912917,5.529759839,72.32888901,-130.426192,-1,-1,-1,-1
1.71E+12,128,128,-1,-1,-1,-1,66.79914744,5.529744842,72.32889228,-130.4320239,-1,-1,-1,-1
1.71E+12,128,128,-1,-1,-1,-1,66.79898121,5.529748895,72.3287301,-130.4379838,-1,-1,-1,-1
1.71E+12,128,128,-1,-1,-1,-1,66.7986333,5.529770016,72.32840331,-130.4440713,-1,-1,-1,-1
1.71E+12,128,128,-1,-1,-1,-1,66.79810658,5.529806638,72.32791322,-130.4502859,-1,-1,-1,-1
1.71E+12,128,128,-1,-1,-1,-1,66.79740399,5.529857582,72.32726157,-130.4566271,-1,-1,-1,-1
1.71E+12,128,128,-1,-1,-1,-1,66.79652854,5.529921984,72.32645053,-130.4630944,-1,-1,-1,-1
1.71E+12,128,128,-1,-1,-1,-1,66.79548335,5.529999233,72.32548258,-130.4696873,-1,-1,-1,-1
1.71E+12,128,128,-1,-1,-1,-1,66.79427155,5.530089003,72.32436055,-130.4764054,-1,-1,-1,-1
1.71E+12,128,128,-1,-1,-1,-1,66.79289632,5.530191261,72.32308758,-130.4832485,-1,-1,-1,-1
1.71E+12,128,128,-1,-1,-1,-1,66.79136073,5.530306244,72.32166697,-130.4902163,-1,-1,-1,-1
1.71E+12,128,128,-1,-1,-1,-1,66.78966785,5.530434358,72.32010221,-130.4973087,-1,-1,-1,-1
1.71E+12,128,128,-1,-1,-1,-1,66.78782089,5.530576066,72.31839696,-130.5045256,-1,-1,-1,-1
1.71E+12,128,128,-1,-1,-1,-1,66.78582322,5.530731835,72.31655506,-130.5118672,-1,-1,-1,-1
1.71E+12,128,128,-1,-1,-1,-1,66.78367843,5.53090209,72.31458052,-130.5193335,-1,-1,-1,-1
1.71E+12,128,128,-1,-1,-1,-1,66.78139038,5.531087217,72.31247759,-130.5269248,-1,-1,-1,-1
1.71E+12,128,128,-1,-1,-1,-1,66.77896321,5.531287595,72.31025081,-130.5346416,-1,-1,-1,-1
1.71E+12,128,128,-1,-1,-1,-1,66.77640132,5.531503608,72.30790493,-130.5424843,-1,-1,-1,-1
1.71E+12,128,128,-1,-1,-1,-1,66.77370934,5.531735583,72.30544493,-130.5504532,-1,-1,-1,-1
1.71E+12,128,128,-1,-1,-1,-1,66.77089217,5.531983755,72.30287592,-130.5585492,-1,-1,-1,-1
1.71E+12,128,128,-1,-1,-1,-1,66.7679548,5.532248336,72.30020314,-130.5667731,-1,-1,-1,-1
1.71E+12,128,128,-1,-1,-1,-1,66.76490239,5.532529551,72.29743194,-130.5751255,-1,-1,-1,-1
1.71E+12,128,128,-1,-1,-1,-1,66.76174017,5.532827625,72.29456779,-130.5836074,-1,-1,-1,-1
1.71E+12,128,128,-1,-1,-1,-1,66.75847351,5.533142854,72.29161636,-130.5922198,-1,-1,-1,-1
1.71E+12,128,128,-1,-1,-1,-1,66.75510791,5.533475615,72.28858352,-130.6009637,-1,-1,-1,-1
1.71E+12,128,128,-1,-1,-1,-1,66.75164899,5.533826267,72.28547526,-130.6098403,-1,-1,-1,-1
1.71E+12,128,128,-1,-1,-1,-1,66.74810253,5.534195197,72.28229773,-130.6188509,-1,-1,-1,-1
1.71E+12,128,128,-1,-1,-1,-1,66.74447442,5.534582756,72.27905717,-130.6279971,-1,-1,-1,-1
1.71E+12,128,128,-1,-1,-1,-1,66.74077054,5.534989243,72.27575978,-130.6372805,-1,-1,-1,-1
1.71E+12,128,128,-1,-1,-1,-1,66.73699678,5.535414989,72.27241177,-130.6467029,-1,-1,-1,-1
1.71E+12,128,128,-1,-1,-1,-1,66.73315909,5.535860336,72.26901943,-130.6562662,-1,-1,-1,-1
1.71E+12,128,128,-1,-1,-1,-1,66.72926343,5.536325585,72.26558901,-130.6659724,-1,-1,-1,-1
1.71E+12,128,128,-1,-1,-1,-1,66.72531574,5.536811007,72.26212675,-130.6758234,-1,-1,-1,-1
1.71E+12,128,128,-1,-1,-1,-1,66.72132195,5.537316882,72.25863884,-130.6858212,-1,-1,-1,-1
1.71E+12,128,128,-1,-1,-1,-1,66.71728797,5.537843514,72.25513149,-130.6959682,-1,-1,-1,-1
1.71E+12,128,128,-1,-1,-1,-1,66.71321968,5.538391259,72.25161094,-130.7062665,-1,-1,-1,-1
1.71E+12,128,128,-1,-1,-1,-1,66.70912287,5.538960503,72.24808337,-130.7167185,-1,-1,-1,-1
1.71E+12,128,128,-1,-1,-1,-1,66.70500324,5.539551603,72.24455484,-130.7273265,-1,-1,-1,-1
1.71E+12,128,128,-1,-1,-1,-1,66.70086641,5.540164881,72.24103129,-130.7380932,-1,-1,-1,-1
1.71E+12,128,128,-1,-1,-1,-1,66.69671786,5.540800671,72.23751853,-130.7490211,-1,-1,-1,-1
1.71E+12,128,128,-1,-1,-1,-1,66.69256298,5.541459329,72.23402231,-130.7601127,-1,-1,-1,-1
1.71E+12,128,128,-1,-1,-1,-1,66.68840706,5.542141199,72.23054826,-130.7713708,-1,-1,-1,-1
1.71E+12,128,128,-1,-1,-1,-1,66.68425528,5.54284659,72.22710187,-130.782798,-1,-1,-1,-1
1.71E+12,128,128,-1,-1,-1,-1,66.68011272,5.543575781,72.2236885,-130.7943972,-1,-1,-1,-1
1.71E+12,128,128,-1,-1,-1,-1,66.6759843,5.544329014,72.22031332,-130.8061708,-1,-1,-1,-1
1.71E+12,128,128,-1,-1,-1,-1,66.67187477,5.545106501,72.21698128,-130.8181213,-1,-1,-1,-1
1.71E+12,128,128,-1,-1,-1,-1,66.66778872,5.545908439,72.21369716,-130.8302512,-1,-1,-1,-1
1.71E+12,128,128,-1,-1,-1,-1,66.66373051,5.546735005,72.21046552,-130.8425627,-1,-1,-1,-1
1.71E+12,128,128,-1,-1,-1,-1,66.6597043,5.547586387,72.20729069,-130.8550582,-1,-1,-1,-1
1.71E+12,128,128,-1,-1,-1,-1,66.65571401,5.548462784,72.2041768,-130.8677401,-1,-1,-1,-1
1.71E+12,128,128,-1,-1,-1,-1,66.65176341,5.549364339,72.20112775,-130.8806109,-1,-1,-1,-1
1.71E+12,128,128,-1,-1,-1,-1,66.64785606,5.550291146,72.19814721,-130.8936733,-1,-1,-1,-1
1.71E+12,128,128,-1,-1,-1,-1,66.64399529,5.551243245,72.19523853,-130.9069295,-1,-1,-1,-1
1.71E+12,128,128,-1,-1,-1,-1,66.64018421,5.552220626,72.19240483,-130.9203822,-1,-1,-1,-1
1.71E+12,128,128,-1,-1,-1,-1,66.63642571,5.553223217,72.18964892,-130.9340336,-1,-1,-1,-1
1.71E+12,128,128,-1,-1,-1,-1,66.63272241,5.554250925,72.18697333,-130.9478857,-1,-1,-1,-1
1.71E+12,128,128,-1,-1,-1,-1,66.62907668,5.555303664,72.18438035,-130.9619405,-1,-1,-1,-1
1.71E+12,128,128,-1,-1,-1,-1,66.6254906,5.556381308,72.1818719,-130.9761994,-1,-1,-1,-1
1.71E+12,128,128,-1,-1,-1,-1,66.62196593,5.55748364,72.17944957,-130.9906638,-1,-1,-1,-1
1.71E+12,128,128,-1,-1,-1,-1,66.6185043,5.55861038,72.17711468,-131.005335,-1,-1,-1,-1
1.71E+12,128,128,-1,-1,-1,-1,66.61510711,5.559761197,72.1748683,-131.020214,-1,-1,-1,-1
1.71E+12,128,128,-1,-1,-1,-1,66.61177547,5.560935724,72.1727112,-131.0353015,-1,-1,-1,-1
1.71E+12,128,128,-1,-1,-1,-1,66.60851027,5.562133546,72.17064382,-131.0505983,-1,-1,-1,-1
1.71E+12,128,128,-1,-1,-1,-1,66.60531208,5.563354172,72.16866626,-131.0661047,-1,-1,-1,-1
1.71E+12,128,128,-1,-1,-1,-1,66.60218122,5.564597032,72.16677825,-131.0818206,-1,-1,-1,-1
1.71E+12,128,128,-1,-1,-1,-1,66.59911773,5.565861514,72.16497925,-131.0977461,-1,-1,-1,-1
1.71E+12,128,128,-1,-1,-1,-1,66.59612147,5.567146945,72.16326841,-131.1138806,-1,-1,-1,-1
1.71E+12,128,128,-1,-1,-1,-1,66.59319205,5.568452595,72.16164465,-131.1302236,-1,-1,-1,-1
1.71E+12,128,128,-1,-1,-1,-1,66.5903289,5.569777647,72.16010655,-131.1467744,-1,-1,-1,-1
1.71E+12,128,128,-1,-1,-1,-1,66.58753124,5.571121241,72.15865248,-131.163532,-1,-1,-1,-1
1.71E+12,128,128,-1,-1,-1,-1,66.58479809,5.572482473,72.15728057,-131.1804953,-1,-1,-1,-1
1.71E+12,128,128,-1,-1,-1,-1,66.58212832,5.573860365,72.15598869,-131.1976631,-1,-1,-1,-1
1.71E+12,128,128,-1,-1,-1,-1,66.57952057,5.575253926,72.1547745,-131.2150338,-1,-1,-1,-1
1.71E+12,128,128,-1,-1,-1,-1,66.5769732,5.576662148,72.15363535,-131.2326056,-1,-1,-1,-1
1.71E+12,128,128,-1,-1,-1,-1,66.5744844,5.57808401,72.15256841,-131.2503768,-1,-1,-1,-1
1.71E+12,128,128,-1,-1,-1,-1,66.5720522,5.579518471,72.15157067,-131.2683451,-1,-1,-1,-1
1.71E+12,128,128,-1,-1,-1,-1,66.56967441,5.580964426,72.15063883,-131.2865083,-1,-1,-1,-1
1.71E+12,128,128,-1,-1,-1,-1,66.56734873,5.582420722,72.14976946,-131.304864,-1,-1,-1,-1
1.71E+12,128,128,-1,-1,-1,-1,66.56507277,5.583886169,72.14895894,-131.3234095,-1,-1,-1,-1
1.71E+12,128,128,-1,-1,-1,-1,66.56284388,5.585359499,72.14820338,-131.3421421,-1,-1,-1,-1
1.71E+12,128,128,-1,-1,-1,-1,66.5606593,5.586839412,72.14749871,-131.3610586,-1,-1,-1,-1
1.71E+12,128,128,-1,-1,-1,-1,66.55851614,5.588324573,72.14684071,-131.3801558,-1,-1,-1,-1
1.71E+12,128,128,-1,-1,-1,-1,66.55641143,5.589813603,72.14622503,-131.3994304,-1,-1,-1,-1
1.71E+12,128,128,-1,-1,-1,-1,66.55434208,5.591305068,72.14564715,-131.4188785,-1,-1,-1,-1
1.71E+12,128,128,-1,-1,-1,-1,66.55230495,5.5927975,72.14510245,-131.4384964,-1,-1,-1,-1
1.71E+12,128,128,-1,-1,-1,-1,66.55029681,5.594289429,72.14458623,-131.4582797,-1,-1,-1,-1
1.71E+12,128,128,-1,-1,-1,-1,66.54831435,5.595779381,72.14409373,-131.4782242,-1,-1,-1,-1
1.71E+12,128,128,-1,-1,-1,-1,66.54635417,5.597265914,72.14362008,-131.4983254,-1,-1,-1,-1
1.71E+12,128,128,-1,-1,-1,-1,66.54441281,5.598747592,72.1431604,-131.5185787,-1,-1,-1,-1
1.71E+12,128,128,-1,-1,-1,-1,66.54248685,5.600222919,72.14270977,-131.5389791,-1,-1,-1,-1
1.71E+12,128,128,-1,-1,-1,-1,66.54057281,5.601690335,72.14226315,-131.5595217,-1,-1,-1,-1
1.71E+12,128,128,-1,-1,-1,-1,66.53866719,5.603148297,72.14181549,-131.580201,-1,-1,-1,-1
1.71E+12,128,128,-1,-1,-1,-1,66.53676651,5.604595279,72.14136179,-131.6010118,-1,-1,-1,-1
1.71E+12,128,128,-1,-1,-1,-1,66.53486737,5.606029747,72.14089712,-131.6219485,-1,-1,-1,-1
1.71E+12,128,128,-1,-1,-1,-1,66.53296644,5.607450158,72.14041659,-131.6430055,-1,-1,-1,-1
1.71E+12,128,128,-1,-1,-1,-1,66.53106046,5.608854992,72.13991546,-131.6641771,-1,-1,-1,-1
1.71E+12,128,128,-1,-1,-1,-1,66.52914622,5.610242738,72.13938896,-131.6854575,-1,-1,-1,-1
1.71E+12,128,128,-1,-1,-1,-1,66.52722048,5.611611858,72.13883234,-131.7068407,-1,-1,-1,-1
1.71E+12,128,128,-1,-1,-1,-1,66.5252801,5.612960808,72.13824091,-131.728321,-1,-1,-1,-1
1.71E+12,128,128,-1,-1,-1,-1,66.523322,5.614288069,72.13761007,-131.7498923,-1,-1,-1,-1
1.71E+12,128,128,-1,-1,-1,-1,66.52134314,5.615592163,72.1369353,-131.7715484,-1,-1,-1,-1
1.71E+12,128,128,-1,-1,-1,-1,66.51934059,5.616871689,72.13621228,-131.7932833,-1,-1,-1,-1
1.71E+12,128,128,-1,-1,-1,-1,66.51731157,5.618125317,72.13543689,-131.8150907,-1,-1,-1,-1
1.71E+12,128,128,-1,-1,-1,-1,66.51525339,5.619351738,72.13460513,-131.8369644,-1,-1,-1,-1
1.71E+12,128,128,-1,-1,-1,-1,66.51316351,5.620549632,72.13371314,-131.8588982,-1,-1,-1,-1
1.71E+12,128,128,-1,-1,-1,-1,66.5110396,5.621717679,72.13275728,-131.8808858,-1,-1,-1,-1
1.71E+12,128,128,-1,-1,-1,-1,66.50887947,5.622854531,72.131734,-131.902921,-1,-1,-1,-1
1.71E+12,128,128,-1,-1,-1,-1,66.50668105,5.623958755,72.1306398,-131.9249976,-1,-1,-1,-1
1.71E+12,128,128,-1,-1,-1,-1,66.50444251,5.625028734,72.12947124,-131.9471096,-1,-1,-1,-1
1.71E+12,128,128,-1,-1,-1,-1,66.50216219,5.62606261,72.1282248,-131.9692511,-1,-1,-1,-1
1.71E+12,128,128,-1,-1,-1,-1,66.49983873,5.627058307,72.12689704,-131.9914161,-1,-1,-1,-1
1.71E+12,128,128,-1,-1,-1,-1,66.49747113,5.628013593,72.12548472,-132.013599,-1,-1,-1,-1
1.71E+12,128,128,-1,-1,-1,-1,66.49505867,5.628926165,72.12398483,-132.0357942,-1,-1,-1,-1
1.71E+12,128,128,-1,-1,-1,-1,66.49260093,5.629793653,72.12239458,-132.0579962,-1,-1,-1,-1
1.71E+12,128,128,-1,-1,-1,-1,66.49009785,5.630613613,72.12071146,-132.0801998,-1,-1,-1,-1
1.71E+12,128,128,-1,-1,-1,-1,66.48754977,5.631383534,72.11893331,-132.1023997,-1,-1,-1,-1
1.71E+12,128,128,-1,-1,-1,-1,66.48495744,5.632100868,72.1170583,-132.1245909,-1,-1,-1,-1
1.71E+12,128,128,-1,-1,-1,-1,66.48232198,5.632763131,72.11508511,-132.1467682,-1,-1,-1,-1
1.71E+12,128,128,-1,-1,-1,-1,66.47964492,5.633368082,72.11301301,-132.1689265,-1,-1,-1,-1
1.71E+12,128,128,-1,-1,-1,-1,66.4769281,5.633913753,72.11084186,-132.191061,-1,-1,-1,-1
1.71E+12,128,128,-1,-1,-1,-1,66.4741738,5.634398391,72.10857219,-132.213167,-1,-1,-1,-1
1.71E+12,128,128,-1,-1,-1,-1,66.47138452,5.634820794,72.10620531,-132.2352399,-1,-1,-1,-1
1.71E+12,128,128,-1,-1,-1,-1,66.46856268,5.635180763,72.10374344,-132.2572754,-1,-1,-1,-1
1.71E+12,128,128,-1,-1,-1,-1,66.46571033,5.63547935,72.10118968,-132.2792693,-1,-1,-1,-1
1.71E+12,128,128,-1,-1,-1,-1,66.46282892,5.635719142,72.09854806,-132.3012173,-1,-1,-1,-1
1.71E+12,128,128,-1,-1,-1,-1,66.45991937,5.63590396,72.09582333,-132.3231157,-1,-1,-1,-1
1.71E+12,128,128,-1,-1,-1,-1,66.45698236,5.636037985,72.09302035,-132.3449604,-1,-1,-1,-1
1.71E+12,128,128,-1,-1,-1,-1,66.45401862,5.636125173,72.09014379,-132.366748,-1,-1,-1,-1
1.71E+12,128,128,-1,-1,-1,-1,66.45102897,5.636169068,72.08719804,-132.3884749,-1,-1,-1,-1
1.71E+12,128,128,-1,-1,-1,-1,66.44801431,5.63617278,72.08418709,-132.410138,-1,-1,-1,-1
1.71E+12,128,128,-1,-1,-1,-1,66.4449755,5.636139073,72.08111457,-132.4317345,-1,-1,-1,-1
1.71E+12,128,128,-1,-1,-1,-1,66.44191321,5.636070715,72.07798392,-132.4532619,-1,-1,-1,-1
1.71E+12,128,128,-1,-1,-1,-1,66.43882801,5.635970606,72.07479861,-132.474718,-1,-1,-1,-1
1.71E+12,128,128,-1,-1,-1,-1,66.43572053,5.635841494,72.07156202,-132.4961008,-1,-1,-1,-1
1.71E+12,128,128,-1,-1,-1,-1,66.43259161,5.635685863,72.06827747,-132.5174083,-1,-1,-1,-1
1.71E+12,128,128,-1,-1,-1,-1,66.42944232,5.635506058,72.06494838,-132.5386383,-1,-1,-1,-1
1.71E+12,128,128,-1,-1,-1,-1,66.42627396,5.635304272,72.06157823,-132.5597881,-1,-1,-1,-1
1.71E+12,128,128,-1,-1,-1,-1,66.42308808,5.635082535,72.05817061,-132.5808547,-1,-1,-1,-1
1.71E+12,128,128,-1,-1,-1,-1,66.41988652,5.634842789,72.05472931,-132.6018344,-1,-1,-1,-1
1.71E+12,128,128,-1,-1,-1,-1,66.41667142,5.634586896,72.05125832,-132.6227233,-1,-1,-1,-1
1.71E+12,128,128,-1,-1,-1,-1,66.41344516,5.63431667,72.04776183,-132.643517,-1,-1,-1,-1
1.71E+12,128,128,-1,-1,-1,-1,66.41021032,5.634033926,72.04424425,-132.6642107,-1,-1,-1,-1
1.71E+12,128,128,-1,-1,-1,-1,66.40696963,5.633740573,72.04071021,-132.6847989,-1,-1,-1,-1
1.71E+12,128,128,-1,-1,-1,-1,66.40372584,5.633438703,72.03716454,-132.7052761,-1,-1,-1,-1
1.71E+12,128,128,-1,-1,-1,-1,66.40048167,5.633130601,72.03361227,-132.725636,-1,-1,-1,-1
1.71E+12,128,128,-1,-1,-1,-1,66.39723981,5.632818725,72.03005854,-132.7458721,-1,-1,-1,-1
1.71E+12,128,128,-1,-1,-1,-1,66.39400285,5.632505708,72.02650856,-132.7659772,-1,-1,-1,-1
1.71E+12,128,128,-1,-1,-1,-1,66.3907733,5.632194364,72.02296766,-132.7859438,-1,-1,-1,-1
1.71E+12,128,128,-1,-1,-1,-1,66.3875536,5.631887707,72.0194413,-132.8057639,-1,-1,-1,-1
1.71E+12,128,128,-1,-1,-1,-1,66.38434602,5.631588899,72.01593492,-132.825429,-1,-1,-1,-1
1.71E+12,128,128,-1,-1,-1,-1,66.38115268,5.631301215,72.0124539,-132.8449303,-1,-1,-1,-1
1.71E+12,128,128,-1,-1,-1,-1,66.37797559,5.631028027,72.00900361,-132.8642582,-1,-1,-1,-1
1.71E+12,128,128,-1,-1,-1,-1,66.37481662,5.630772782,72.0055894,-132.883403,-1,-1,-1,-1
1.71E+12,128,128,-1,-1,-1,-1,66.37167751,5.630539034,72.00221654,-132.9023544,-1,-1,-1,-1
1.71E+12,128,128,-1,-1,-1,-1,66.36855982,5.630330424,71.99889025,-132.9211017,-1,-1,-1,-1
1.71E+12,128,128,-1,-1,-1,-1,66.36546506,5.630150582,71.99561564,-132.9396338,-1,-1,-1,-1
1.71E+12,128,128,-1,-1,-1,-1,66.36239458,5.630003077,71.99239765,-132.9579394,-1,-1,-1,-1
1.71E+12,128,128,-1,-1,-1,-1,66.35934963,5.629891393,71.98924103,-132.9760065,-1,-1,-1,-1
1.71E+12,128,128,-1,-1,-1,-1,66.35633132,5.629818998,71.98615031,-132.9938227,-1,-1,-1,-1
1.71E+12,128,128,-1,-1,-1,-1,66.35334052,5.62978936,71.98312988,-133.0113754,-1,-1,-1,-1
1.71E+12,128,128,-1,-1,-1,-1,66.35037799,5.629805926,71.98018392,-133.0286511,-1,-1,-1,-1
1.71E+12,128,128,-1,-1,-1,-1,66.34744431,5.629872085,71.97731639,-133.045636,-1,-1,-1,-1
1.71E+12,128,128,-1,-1,-1,-1,66.34453994,5.629991136,71.97453107,-133.0623156,-1,-1,-1,-1
1.71E+12,128,128,-1,-1,-1,-1,66.34166531,5.630166262,71.97183157,-133.0786748,-1,-1,-1,-1
1.71E+12,128,128,-1,-1,-1,-1,66.3388207,5.630400531,71.96922123,-133.0946981,-1,-1,-1,-1
1.71E+12,128,128,-1,-1,-1,-1,66.33600624,5.630696882,71.96670312,-133.1103698,-1,-1,-1,-1
1.71E+12,128,128,-1,-1,-1,-1,66.33322186,5.63105805,71.96427991,-133.1256732,-1,-1,-1,-1
1.71E+12,128,128,-1,-1,-1,-1,66.33046739,5.631486576,71.96195397,-133.1405915,-1,-1,-1,-1
1.71E+12,128,128,-1,-1,-1,-1,66.32774256,5.631984826,71.95972738,-133.1551074,-1,-1,-1,-1
1.71E+12,128,128,-1,-1,-1,-1,66.3250469,5.632555,71.9576019,-133.1692028,-1,-1,-1,-1
1.71E+12,128,128,-1,-1,-1,-1,66.32237983,5.633199116,71.95557894,-133.1828594,-1,-1,-1,-1
1.71E+12,128,128,-1,-1,-1,-1,66.31974063,5.633918981,71.95365961,-133.1960584,-1,-1,-1,-1
1.71E+12,128,128,-1,-1,-1,-1,66.31712855,5.634716185,71.95184473,-133.2087805,-1,-1,-1,-1
1.71E+12,128,128,-1,-1,-1,-1,66.31454271,5.635592113,71.95013482,-133.221006,-1,-1,-1,-1
1.71E+12,128,128,-1,-1,-1,-1,66.31198214,5.636547915,71.94853005,-133.2327149,-1,-1,-1,-1
1.71E+12,128,128,-1,-1,-1,-1,66.30944573,5.63758447,71.9470302,-133.2438868,-1,-1,-1,-1
1.71E+12,128,128,-1,-1,-1,-1,66.30693225,5.638702368,71.94563462,-133.2545008,-1,-1,-1,-1
1.71E+12,128,128,-1,-1,-1,-1,66.30444042,5.639901957,71.94434238,-133.2645361,-1,-1,-1,-1
1.71E+12,128,128,-1,-1,-1,-1,66.301969,5.64118335,71.94315235,-133.2739715,-1,-1,-1,-1
1.71E+12,128,128,-1,-1,-1,-1,66.29951676,5.642546389,71.94206315,-133.2827858,-1,-1,-1,-1
1.71E+12,128,128,-1,-1,-1,-1,66.29708246,5.643990617,71.94107307,-133.2909579,-1,-1,-1,-1
1.71E+12,128,128,-1,-1,-1,-1,66.29466487,5.645515273,71.94018014,-133.2984665,-1,-1,-1,-1
1.71E+12,128,128,-1,-1,-1,-1,66.29226273,5.647119353,71.93938208,-133.3052906,-1,-1,-1,-1
1.71E+12,128,128,-1,-1,-1,-1,66.28987476,5.648801565,71.93867632,-133.3114092,-1,-1,-1,-1
1.71E+12,128,128,-1,-1,-1,-1,66.28749962,5.650560316,71.93805993,-133.3168014,-1,-1,-1,-1
1.71E+12,128,128,-1,-1,-1,-1,66.28513592,5.652393727,71.93752965,-133.3214466,-1,-1,-1,-1
1.71E+12,128,128,-1,-1,-1,-1,66.28278234,5.65429964,71.93708198,-133.3253242,-1,-1,-1,-1
1.71E+12,128,128,-1,-1,-1,-1,66.28043764,5.656275621,71.93671326,-133.3284144,-1,-1,-1,-1
1.71E+12,128,128,-1,-1,-1,-1,66.2781006,5.658318966,71.93641957,-133.3306977,-1,-1,-1,-1
1.71E+12,128,128,-1,-1,-1,-1,66.2757701,5.660426753,71.93619685,-133.3321549,-1,-1,-1,-1
1.71E+12,128,128,-1,-1,-1,-1,66.27344502,5.662595803,71.93604082,-133.3327675,-1,-1,-1,-1
1.71E+12,128,128,-1,-1,-1,-1,66.27112428,5.664822654,71.93594693,-133.3325177,-1,-1,-1,-1
1.71E+12,128,128,-1,-1,-1,-1,66.26880682,5.667103612,71.93591043,-133.3313883,-1,-1,-1,-1
1.71E+12,128,128,-1,-1,-1,-1,66.26649174,5.669434754,71.93592649,-133.3293628,-1,-1,-1,-1
1.71E+12,128,128,-1,-1,-1,-1,66.26417828,5.67181191,71.93599019,-133.3264255,-1,-1,-1,-1
1.71E+12,128,128,-1,-1,-1,-1,66.26186573,5.674230687,71.93609642,-133.3225613,-1,-1,-1,-1
1.71E+12,128,128,-1,-1,-1,-1,66.25955349,5.67668646,71.93623995,-133.3177564,-1,-1,-1,-1
1.71E+12,128,128,-1,-1,-1,-1,66.25724108,5.679174384,71.93641547,-133.3119976,-1,-1,-1,-1
1.71E+12,128,128,-1,-1,-1,-1,66.25492822,5.681689435,71.93661766,-133.3052732,-1,-1,-1,-1
1.71E+12,128,128,-1,-1,-1,-1,66.25261476,5.684226437,71.9368412,-133.2975722,-1,-1,-1,-1
1.71E+12,128,128,-1,-1,-1,-1,66.25030059,5.686780077,71.93708067,-133.2888851,-1,-1,-1,-1
1.71E+12,128,128,-1,-1,-1,-1,66.24798567,5.68934491,71.93733058,-133.2792035,-1,-1,-1,-1
1.71E+12,128,128,-1,-1,-1,-1,66.24567006,5.691915406,71.93758547,-133.2685203,-1,-1,-1,-1
1.71E+12,128,128,-1,-1,-1,-1,66.24335394,5.694485952,71.93783989,-133.25683,-1,-1,-1,-1
1.71E+12,128,128,-1,-1,-1,-1,66.24103756,5.697050845,71.93808841,-133.2441283,-1,-1,-1,-1
1.71E+12,128,128,-1,-1,-1,-1,66.23872135,5.699604346,71.93832569,-133.2304125,-1,-1,-1,-1
1.71E+12,128,128,-1,-1,-1,-1,66.23640578,5.702140695,71.93854648,-133.2156814,-1,-1,-1,-1
1.71E+12,128,128,-1,-1,-1,-1,66.23409143,5.704654104,71.93874554,-133.1999351,-1,-1,-1,-1
1.71E+12,128,128,-1,-1,-1,-1,66.23177898,5.707138787,71.93891776,-133.1831757,-1,-1,-1,-1
1.71E+12,128,128,-1,-1,-1,-1,66.22946917,5.709588971,71.93905814,-133.1654064,-1,-1,-1,-1
1.71E+12,128,128,-1,-1,-1,-1,66.22716286,5.711998857,71.93916172,-133.1466326,-1,-1,-1,-1
1.71E+12,128,128,-1,-1,-1,-1,66.22486105,5.714362612,71.93922366,-133.126861,-1,-1,-1,-1
1.71E+12,128,128,-1,-1,-1,-1,66.22256492,5.71667442,71.93923934,-133.1061002,-1,-1,-1,-1
1.71E+12,128,128,-1,-1,-1,-1,66.22027588,5.718928534,71.93920442,-133.0843606,-1,-1,-1,-1
1.71E+12,128,128,-1,-1,-1,-1,66.2179955,5.72111932,71.93911482,-133.0616543,-1,-1,-1,-1
1.71E+12,128,128,-1,-1,-1,-1,66.21572544,5.723241264,71.93896671,-133.0379952,-1,-1,-1,-1
1.71E+12,128,128,-1,-1,-1,-1,66.21346747,5.725288964,71.93875644,-133.0133986,-1,-1,-1,-1
1.71E+12,128,128,-1,-1,-1,-1,66.21122343,5.727257133,71.93848057,-132.9878819,-1,-1,-1,-1
1.71E+12,128,128,-1,-1,-1,-1,66.20899526,5.729140641,71.9381359,-132.961464,-1,-1,-1,-1
1.71E+12,128,128,-1,-1,-1,-1,66.20678495,5.730934572,71.93771953,-132.9341656,-1,-1,-1,-1
1.71E+12,128,128,-1,-1,-1,-1,66.20459467,5.732634208,71.93722888,-132.9060089,-1,-1,-1,-1
1.71E+12,128,128,-1,-1,-1,-1,66.20242665,5.734235051,71.9366617,-132.8770176,-1,-1,-1,-1
1.71E+12,128,128,-1,-1,-1,-1,66.20028323,5.735732848,71.93601608,-132.8472171,-1,-1,-1,-1
1.71E+12,128,128,-1,-1,-1,-1,66.19816686,5.737123576,71.93529043,-132.8166342,-1,-1,-1,-1
1.71E+12,128,128,-1,-1,-1,-1,66.19608005,5.738403476,71.93448352,-132.7852971,-1,-1,-1,-1
1.71E+12,128,128,-1,-1,-1,-1,66.19402536,5.739569109,71.93359446,-132.7532354,-1,-1,-1,-1
1.71E+12,128,128,-1,-1,-1,-1,66.19200539,5.74061731,71.9326227,-132.7204801,-1,-1,-1,-1
1.71E+12,128,128,-1,-1,-1,-1,66.19002281,5.74154519,71.931568,-132.6870634,-1,-1,-1,-1
1.71E+12,128,128,-1,-1,-1,-1,66.18808036,5.742350167,71.93043053,-132.6530186,-1,-1,-1,-1
1.71E+12,128,128,-1,-1,-1,-1,66.18618079,5.743029943,71.92921073,-132.6183801,-1,-1,-1,-1
1.71E+12,128,128,-1,-1,-1,-1,66.18432687,5.74358255,71.92790942,-132.5831836,-1,-1,-1,-1
1.71E+12,128,128,-1,-1,-1,-1,66.18252137,5.744006369,71.92652774,-132.5474658,-1,-1,-1,-1
1.71E+12,128,128,-1,-1,-1,-1,66.1807671,5.744300114,71.92506721,-132.5112643,-1,-1,-1,-1
1.71E+12,128,128,-1,-1,-1,-1,66.17906692,5.744462848,71.92352977,-132.4746176,-1,-1,-1,-1
1.71E+12,128,128,-1,-1,-1,-1,66.1774237,5.744493979,71.92191767,-132.437565,-1,-1,-1,-1
1.71E+12,128,128,-1,-1,-1,-1,66.17584024,5.744393209,71.92023345,-132.4001466,-1,-1,-1,-1
1.71E+12,128,128,-1,-1,-1,-1,66.17431929,5.744160554,71.91847985,-132.3624031,-1,-1,-1,-1
1.71E+12,128,128,-1,-1,-1,-1,66.17286358,5.743796383,71.91665996,-132.3243759,-1,-1,-1,-1
1.71E+12,128,128,-1,-1,-1,-1,66.17147577,5.7433014,71.91477717,-132.2861067,-1,-1,-1,-1
1.71E+12,128,128,-1,-1,-1,-1,66.17015854,5.742676651,71.91283519,-132.2476374,-1,-1,-1,-1
1.71E+12,128,128,-1,-1,-1,-1,66.16891451,5.741923497,71.91083801,-132.20901,-1,-1,-1,-1
1.71E+12,128,128,-1,-1,-1,-1,66.16774624,5.741043622,71.90878986,-132.1702664,-1,-1,-1,-1
1.71E+12,128,128,-1,-1,-1,-1,66.16665616,5.740039042,71.9066952,-132.1314485,-1,-1,-1,-1
1.71E+12,128,128,-1,-1,-1,-1,66.16564661,5.738912088,71.9045587,-132.0925985,-1,-1,-1,-1
1.71E+12,128,128,-1,-1,-1,-1,66.16471978,5.737665429,71.90238521,-132.0537583,-1,-1,-1,-1
1.71E+12,128,128,-1,-1,-1,-1,66.16387772,5.736302005,71.90017973,-132.01497,-1,-1,-1,-1
1.71E+12,128,128,-1,-1,-1,-1,66.16312243,5.734824984,71.89794741,-131.9762755,-1,-1,-1,-1
1.71E+12,128,128,-1,-1,-1,-1,66.1624558,5.733237806,71.89569361,-131.9377162,-1,-1,-1,-1
1.71E+12,128,128,-1,-1,-1,-1,66.16187963,5.731544123,71.89342376,-131.8993332,-1,-1,-1,-1
1.71E+12,128,128,-1,-1,-1,-1,66.16139556,5.729747812,71.89114337,-131.8611668,-1,-1,-1,-1
1.71E+12,128,128,-1,-1,-1,-1,66.16100506,5.727853,71.88885806,-131.8232565,-1,-1,-1,-1
1.71E+12,128,128,-1,-1,-1,-1,66.16070945,5.725864021,71.88657347,-131.785641,-1,-1,-1,-1
1.71E+12,128,128,-1,-1,-1,-1,66.16050987,5.723785419,71.88429529,-131.7483582,-1,-1,-1,-1
1.71E+12,128,128,-1,-1,-1,-1,66.16040733,5.721621943,71.88202927,-131.7114449,-1,-1,-1,-1
1.71E+12,128,128,-1,-1,-1,-1,66.16040265,5.719378532,71.87978118,-131.6749372,-1,-1,-1,-1
1.71E+12,128,128,-1,-1,-1,-1,66.16049646,5.717060281,71.87755674,-131.6388702,-1,-1,-1,-1
1.71E+12,128,128,-1,-1,-1,-1,66.16068923,5.7146724,71.87536163,-131.6032777,-1,-1,-1,-1
1.71E+12,128,128,-1,-1,-1,-1,66.16098132,5.712220234,71.87320156,-131.568193,-1,-1,-1,-1
1.71E+12,128,128,-1,-1,-1,-1,66.16137292,5.709709258,71.87108217,-131.5336477,-1,-1,-1,-1
1.71E+12,128,128,-1,-1,-1,-1,66.16186392,5.707145037,71.86900895,-131.4996723,-1,-1,-1,-1
1.71E+12,128,128,-1,-1,-1,-1,66.16245399,5.70453321,71.8669872,-131.466296,-1,-1,-1,-1
1.71E+12,128,128,-1,-1,-1,-1,66.16314265,5.701879471,71.86502212,-131.4335466,-1,-1,-1,-1
1.71E+12,128,128,-1,-1,-1,-1,66.16392922,5.699189544,71.86311877,-131.4014505,-1,-1,-1,-1
1.71E+12,128,128,-1,-1,-1,-1,66.16481286,5.696469226,71.86128209,-131.3700327,-1,-1,-1,-1
1.71E+12,128,128,-1,-1,-1,-1,66.16579254,5.693724344,71.85951688,-131.3393166,-1,-1,-1,-1
1.71E+12,128,128,-1,-1,-1,-1,66.16686703,5.690960698,71.85782772,-131.3093242,-1,-1,-1,-1
1.71E+12,128,128,-1,-1,-1,-1,66.16803495,5.688184064,71.85621901,-131.2800761,-1,-1,-1,-1
1.71E+12,128,128,-1,-1,-1,-1,66.16929473,5.685400173,71.8546949,-131.2515908,-1,-1,-1,-1
1.71E+12,128,128,-1,-1,-1,-1,66.17064456,5.682614738,71.8532593,-131.2238856,-1,-1,-1,-1
1.71E+12,128,128,-1,-1,-1,-1,66.1720824,5.679833385,71.85191579,-131.1969759,-1,-1,-1,-1
1.71E+12,128,128,-1,-1,-1,-1,66.17360601,5.677061625,71.85066763,-131.1708754,-1,-1,-1,-1
1.71E+12,128,128,-1,-1,-1,-1,66.17521296,5.674304874,71.84951783,-131.1455961,-1,-1,-1,-1
1.71E+12,128,128,-1,-1,-1,-1,66.1769007,5.671568399,71.8484691,-131.1211484,-1,-1,-1,-1
1.71E+12,128,128,-1,-1,-1,-1,66.17866655,5.66885732,71.84752387,-131.0975409,-1,-1,-1,-1
1.71E+12,128,128,-1,-1,-1,-1,66.18050771,5.666176572,71.84668428,-131.0747805,-1,-1,-1,-1
1.71E+12,128,128,-1,-1,-1,-1,66.1824212,5.663530879,71.84595208,-131.0528724,-1,-1,-1,-1
1.71E+12,128,128,-1,-1,-1,-1,66.18440397,5.660924817,71.84532879,-131.0318204,-1,-1,-1,-1
1.71E+12,128,128,-1,-1,-1,-1,66.18645278,5.658362815,71.84481559,-131.0116265,-1,-1,-1,-1
1.71E+12,128,128,-1,-1,-1,-1,66.1885642,5.655849105,71.8444133,-130.992291,-1,-1,-1,-1
1.71E+12,128,128,-1,-1,-1,-1,66.19073471,5.65338771,71.84412242,-130.973813,-1,-1,-1,-1
1.71E+12,128,128,-1,-1,-1,-1,66.19296071,5.65098245,71.84394316,-130.9561899,-1,-1,-1,-1
1.71E+12,128,128,-1,-1,-1,-1,66.19523841,5.648636959,71.84387537,-130.9394179,-1,-1,-1,-1
1.71E+12,128,128,-1,-1,-1,-1,66.19756399,5.646354667,71.84391866,-130.9234919,-1,-1,-1,-1
1.71E+12,128,128,-1,-1,-1,-1,66.19993356,5.644138795,71.84407236,-130.9084055,-1,-1,-1,-1
1.71E+12,128,128,-1,-1,-1,-1,66.20234313,5.641992323,71.84433545,-130.8941511,-1,-1,-1,-1
1.71E+12,128,128,-1,-1,-1,-1,66.20478854,5.63991801,71.84470655,-130.88072,-1,-1,-1,-1
1.71E+12,128,128,-1,-1,-1,-1,66.20726561,5.637918383,71.84518399,-130.8681022,-1,-1,-1,-1
1.71E+12,128,128,-1,-1,-1,-1,66.2097701,5.635995715,71.84576581,-130.8562871,-1,-1,-1,-1
1.71E+12,128,128,-1,-1,-1,-1,66.21229765,5.634152058,71.84644971,-130.8452626,-1,-1,-1,-1
1.71E+12,128,128,-1,-1,-1,-1,66.21484385,5.632389262,71.84723312,-130.835016,-1,-1,-1,-1
1.71E+12,128,128,-1,-1,-1,-1,66.21740429,5.630708945,71.84811323,-130.8255336,-1,-1,-1,-1
1.71E+12,128,128,-1,-1,-1,-1,66.21997455,5.62911248,71.84908703,-130.8168009,-1,-1,-1,-1
1.71E+12,128,128,-1,-1,-1,-1,66.22255019,5.62760097,71.85015116,-130.8088028,-1,-1,-1,-1
1.71E+12,128,128,-1,-1,-1,-1,66.22512672,5.626175262,71.85130198,-130.8015233,-1,-1,-1,-1
1.71E+12,128,128,-1,-1,-1,-1,66.22769956,5.62483596,71.85253552,-130.794946,-1,-1,-1,-1
1.71E+12,128,128,-1,-1,-1,-1,66.23026413,5.623583426,71.85384755,-130.7890539,-1,-1,-1,-1
1.71E+12,128,128,-1,-1,-1,-1,66.23281584,5.622417813,71.85523365,-130.7838294,-1,-1,-1,-1
1.71E+12,128,128,-1,-1,-1,-1,66.23535019,5.621339079,71.85668927,-130.7792545,-1,-1,-1,-1
1.71E+12,128,128,-1,-1,-1,-1,66.23786268,5.620346985,71.85820966,-130.7753112,-1,-1,-1,-1
1.71E+12,128,128,-1,-1,-1,-1,66.2403489,5.619441075,71.85978998,-130.7719809,-1,-1,-1,-1
1.71E+12,128,128,-1,-1,-1,-1,66.24280454,5.618620705,71.86142524,-130.769245,-1,-1,-1,-1
1.71E+12,128,128,-1,-1,-1,-1,66.24522528,5.617885045,71.86311033,-130.767085,-1,-1,-1,-1
1.71E+12,128,128,-1,-1,-1,-1,66.24760691,5.617233104,71.86484001,-130.7654821,-1,-1,-1,-1
1.71E+12,128,128,-1,-1,-1,-1,66.24994526,5.616663722,71.86660898,-130.7644175,-1,-1,-1,-1
1.71E+12,128,128,-1,-1,-1,-1,66.25223619,5.616175598,71.86841179,-130.7638727,-1,-1,-1,-1
1.71E+12,128,128,-1,-1,-1,-1,66.25447559,5.615767324,71.87024291,-130.763829,-1,-1,-1,-1
1.71E+12,128,128,-1,-1,-1,-1,66.25665947,5.615437435,71.8720969,-130.7642683,-1,-1,-1,-1
1.71E+12,128,128,-1,-1,-1,-1,66.25878395,5.615184457,71.8739684,-130.7651724,-1,-1,-1,-1
1.71E+12,128,128,-1,-1,-1,-1,66.26084519,5.615007031,71.87585222,-130.7665233,-1,-1,-1,-1
1.71E+12,128,128,-1,-1,-1,-1,66.26283935,5.614903999,71.87774335,-130.7683034,-1,-1,-1,-1
1.71E+12,128,128,-1,-1,-1,-1,66.26476263,5.614874402,71.87963703,-130.7704954,-1,-1,-1,-1
1.71E+12,128,128,-1,-1,-1,-1,66.26661116,5.614917419,71.88152858,-130.7730823,-1,-1,-1,-1
1.71E+12,128,128,-1,-1,-1,-1,66.26838107,5.61503229,71.88341336,-130.7760475,-1,-1,-1,-1
1.71E+12,128,128,-1,-1,-1,-1,66.27006849,5.615218338,71.88528683,-130.7793748,-1,-1,-1,-1
1.71E+12,128,128,-1,-1,-1,-1,66.27166955,5.615474972,71.88714452,-130.7830485,-1,-1,-1,-1
1.71E+12,128,128,-1,-1,-1,-1,66.27318029,5.615801701,71.88898199,-130.7870532,-1,-1,-1,-1
1.71E+12,128,128,-1,-1,-1,-1,66.27459667,5.616198112,71.89079478,-130.7913741,-1,-1,-1,-1
1.71E+12,128,128,-1,-1,-1,-1,66.27591459,5.616663761,71.89257835,-130.7959971,-1,-1,-1,-1
1.71E+12,128,128,-1,-1,-1,-1,66.27713001,5.617198029,71.89432804,-130.8009086,-1,-1,-1,-1
1.71E+12,128,128,-1,-1,-1,-1,66.27823889,5.617800123,71.89603902,-130.8060956,-1,-1,-1,-1
1.71E+12,128,128,-1,-1,-1,-1,66.27923709,5.618469138,71.89770622,-130.8115458,-1,-1,-1,-1
1.71E+12,128,128,-1,-1,-1,-1,66.28012053,5.619203716,71.89932425,-130.8172471,-1,-1,-1,-1
1.71E+12,128,128,-1,-1,-1,-1,66.28088568,5.620001615,71.90088729,-130.8231883,-1,-1,-1,-1
1.71E+12,128,128,-1,-1,-1,-1,66.28152964,5.620859497,71.90238914,-130.8293588,-1,-1,-1,-1
1.71E+12,128,128,-1,-1,-1,-1,66.28205049,5.621772647,71.90382314,-130.8357484,-1,-1,-1,-1
1.71E+12,128,128,-1,-1,-1,-1,66.2824472,5.622735265,71.90518247,-130.8423474,-1,-1,-1,-1
1.71E+12,128,128,-1,-1,-1,-1,66.28271931,5.62374135,71.90646066,-130.8491464,-1,-1,-1,-1
1.71E+12,128,128,-1,-1,-1,-1,66.28286668,5.624785299,71.90765198,-130.8561367,-1,-1,-1,-1
1.71E+12,128,128,-1,-1,-1,-1,66.2828894,5.625862116,71.90875152,-130.8633095,-1,-1,-1,-1
1.71E+12,128,128,-1,-1,-1,-1,66.28278779,5.626967458,71.90975525,-130.8706568,-1,-1,-1,-1
1.71E+12,128,128,-1,-1,-1,-1,66.28256252,5.628097558,71.91066008,-130.8781704,-1,-1,-1,-1
1.71E+12,128,128,-1,-1,-1,-1,66.28221474,5.629248863,71.9114636,-130.8858423,-1,-1,-1,-1
1.71E+12,128,128,-1,-1,-1,-1,66.28174601,5.630417886,71.9121639,-130.893665,-1,-1,-1,-1
1.71E+12,128,128,-1,-1,-1,-1,66.28115805,5.631601483,71.91275953,-130.9016307,-1,-1,-1,-1
1.71E+12,128,128,-1,-1,-1,-1,66.2804526,5.632796989,71.91324959,-130.9097324,-1,-1,-1,-1
1.71E+12,128,128,-1,-1,-1,-1,66.27963145,5.6340021,71.91363355,-130.9179635,-1,-1,-1,-1
1.71E+12,128,128,-1,-1,-1,-1,66.27869641,5.635214868,71.91391128,-130.926318,-1,-1,-1,-1
1.71E+12,128,128,-1,-1,-1,-1,66.27764926,5.636433694,71.91408296,-130.9347906,-1,-1,-1,-1
1.71E+12,128,128,-1,-1,-1,-1,66.27649176,5.637657257,71.91414901,-130.9433767,-1,-1,-1,-1
1.71E+12,128,128,-1,-1,-1,-1,66.27522556,5.638884499,71.91411006,-130.9520721,-1,-1,-1,-1
1.71E+12,128,128,-1,-1,-1,-1,66.27385223,5.640114603,71.91396683,-130.9608732,-1,-1,-1,-1
1.71E+12,128,128,-1,-1,-1,-1,66.27237329,5.641346949,71.91372024,-130.9697771,-1,-1,-1,-1
1.71E+12,128,128,-1,-1,-1,-1,66.27079033,5.642581007,71.91337134,-130.9787808,-1,-1,-1,-1
1.71E+12,128,128,-1,-1,-1,-1,66.26910511,5.643816266,71.91292137,-130.987882,-1,-1,-1,-1
1.71E+12,128,128,-1,-1,-1,-1,66.26731952,5.645052259,71.91237177,-130.9970782,-1,-1,-1,-1
1.71E+12,128,128,-1,-1,-1,-1,66.26543567,5.646288519,71.91172419,-131.0063676,-1,-1,-1,-1
1.71E+12,128,128,-1,-1,-1,-1,66.26345594,5.647524533,71.91098048,-131.0157483,-1,-1,-1,-1
1.71E+12,128,128,-1,-1,-1,-1,66.26138289,5.648759757,71.91014265,-131.0252186,-1,-1,-1,-1
1.71E+12,128,128,-1,-1,-1,-1,66.25921926,5.64999366,71.90921292,-131.0347769,-1,-1,-1,-1
1.71E+12,128,128,-1,-1,-1,-1,66.25696792,5.651225698,71.90819362,-131.0444217,-1,-1,-1,-1
1.71E+12,128,128,-1,-1,-1,-1,66.25463199,5.652455291,71.90708728,-131.0541515,-1,-1,-1,-1
1.71E+12,128,128,-1,-1,-1,-1,66.2522147,5.653681881,71.90589658,-131.0639648,-1,-1,-1,-1
1.71E+12,128,128,-1,-1,-1,-1,66.24971949,5.654904962,71.90462445,-131.0738599,-1,-1,-1,-1
1.71E+12,128,128,-1,-1,-1,-1,66.24714992,5.656124037,71.90327396,-131.0838351,-1,-1,-1,-1
1.71E+12,128,128,-1,-1,-1,-1,66.24450969,5.657338619,71.90184831,-131.0938885,-1,-1,-1,-1
1.71E+12,128,128,-1,-1,-1,-1,66.24180262,5.658548277,71.9003509,-131.1040179,-1,-1,-1,-1
1.71E+12,128,128,-1,-1,-1,-1,66.23903261,5.65975265,71.89878526,-131.1142209,-1,-1,-1,-1
1.71E+12,128,128,-1,-1,-1,-1,66.23620366,5.660951401,71.89715506,-131.1244948,-1,-1,-1,-1
1.71E+12,128,128,-1,-1,-1,-1,66.23331981,5.6621442,71.89546401,-131.1348366,-1,-1,-1,-1
1.71E+12,128,128,-1,-1,-1,-1,66.23038528,5.663330745,71.89371603,-131.1452433,-1,-1,-1,-1
1.71E+12,128,128,-1,-1,-1,-1,66.22740444,5.664510732,71.89191518,-131.1557113,-1,-1,-1,-1
1.71E+12,128,128,-1,-1,-1,-1,66.22438171,5.665683838,71.89006554,-131.166237,-1,-1,-1,-1
1.71E+12,128,128,-1,-1,-1,-1,66.22132147,5.666849751,71.88817122,-131.1768169,-1,-1,-1,-1
1.71E+12,128,128,-1,-1,-1,-1,66.21822813,5.668008169,71.8862363,-131.1874467,-1,-1,-1,-1
1.71E+12,128,128,-1,-1,-1,-1,66.21510611,5.669158818,71.88426493,-131.1981223,-1,-1,-1,-1
1.71E+12,128,128,-1,-1,-1,-1,66.21195987,5.670301478,71.88226135,-131.208839,-1,-1,-1,-1
1.71E+12,128,128,-1,-1,-1,-1,66.20879387,5.671436013,71.88022989,-131.219592,-1,-1,-1,-1
1.71E+12,128,128,-1,-1,-1,-1,66.20561255,5.672562376,71.87817492,-131.2303762,-1,-1,-1,-1
1.71E+12,128,128,-1,-1,-1,-1,66.20242032,5.673680557,71.87610087,-131.2411861,-1,-1,-1,-1
1.71E+12,128,128,-1,-1,-1,-1,66.19922157,5.674790568,71.87401214,-131.2520162,-1,-1,-1,-1
1.71E+12,128,128,-1,-1,-1,-1,66.19602062,5.675892453,71.87191308,-131.2628609,-1,-1,-1,-1
1.71E+12,128,128,-1,-1,-1,-1,66.19282174,5.676986297,71.86980804,-131.2737141,-1,-1,-1,-1
1.71E+12,128,128,-1,-1,-1,-1,66.18962908,5.678072233,71.86770131,-131.2845699,-1,-1,-1,-1
1.71E+12,128,128,-1,-1,-1,-1,66.18644668,5.679150454,71.86559713,-131.2954221,-1,-1,-1,-1
1.71E+12,128,128,-1,-1,-1,-1,66.18327855,5.680221196,71.86349975,-131.3062642,-1,-1,-1,-1
1.71E+12,128,128,-1,-1,-1,-1,66.18012863,5.681284705,71.86141334,-131.31709,-1,-1,-1,-1
1.71E+12,128,128,-1,-1,-1,-1,66.17700085,5.682341242,71.85934209,-131.3278929,-1,-1,-1,-1
1.71E+12,128,128,-1,-1,-1,-1,66.17389901,5.683391108,71.85729012,-131.3386664,-1,-1,-1,-1
1.71E+12,128,128,-1,-1,-1,-1,66.17082676,5.684434614,71.85526137,-131.3494037,-1,-1,-1,-1
1.71E+12,128,128,-1,-1,-1,-1,66.16778762,5.685472071,71.85325969,-131.3600982,-1,-1,-1,-1
1.71E+12,128,128,-1,-1,-1,-1,66.16478496,5.686503826,71.85128879,-131.3707432,-1,-1,-1,-1
1.71E+12,128,128,-1,-1,-1,-1,66.16182204,5.687530239,71.84935228,-131.381332,-1,-1,-1,-1
1.71E+12,128,128,-1,-1,-1,-1,66.15890193,5.688551691,71.84745362,-131.3918578,-1,-1,-1,-1
1.71E+12,128,128,-1,-1,-1,-1,66.15602748,5.689568616,71.8455961,-131.4023141,-1,-1,-1,-1
1.71E+12,128,128,-1,-1,-1,-1,66.15320142,5.690581487,71.84378291,-131.412694,-1,-1,-1,-1
1.71E+12,128,128,-1,-1,-1,-1,66.15042638,5.691590793,71.84201717,-131.4229911,-1,-1,-1,-1
1.71E+12,128,128,-1,-1,-1,-1,66.14770484,5.692597016,71.84030185,-131.4331987,-1,-1,-1,-1
1.71E+12,128,128,-1,-1,-1,-1,66.14503909,5.69360062,71.83863971,-131.4433104,-1,-1,-1,-1
1.71E+12,128,128,-1,-1,-1,-1,66.14243126,5.69460204,71.8370333,-131.4533199,-1,-1,-1,-1
1.71E+12,128,128,-1,-1,-1,-1,66.13988332,5.695601713,71.83548503,-131.463221,-1,-1,-1,-1
1.71E+12,128,128,-1,-1,-1,-1,66.13739702,5.696600082,71.8339971,-131.4730076,-1,-1,-1,-1
1.71E+12,128,128,-1,-1,-1,-1,66.13497402,5.697597548,71.83257157,-131.4826738,-1,-1,-1,-1
1.71E+12,128,128,-1,-1,-1,-1,66.13261585,5.698594468,71.83121032,-131.492214,-1,-1,-1,-1
1.71E+12,128,128,-1,-1,-1,-1,66.13032382,5.699591189,71.82991501,-131.5016227,-1,-1,-1,-1
1.71E+12,128,128,-1,-1,-1,-1,66.12809906,5.700588056,71.82868712,-131.5108947,-1,-1,-1,-1
1.71E+12,128,128,-1,-1,-1,-1,66.12594261,5.701585397,71.827528,-131.5200249,-1,-1,-1,-1
1.71E+12,128,128,-1,-1,-1,-1,66.12385531,5.702583525,71.82643883,-131.5290086,-1,-1,-1,-1
1.71E+12,128,128,-1,-1,-1,-1,66.12183789,5.703582741,71.82542063,-131.537841,-1,-1,-1,-1
1.71E+12,128,128,-1,-1,-1,-1,66.11989092,5.704583309,71.82447423,-131.546518,-1,-1,-1,-1
1.71E+12,128,128,-1,-1,-1,-1,66.1180148,5.705585445,71.82360024,-131.5550356,-1,-1,-1,-1
1.71E+12,128,128,-1,-1,-1,-1,66.1162098,5.70658935,71.82279915,-131.5633901,-1,-1,-1,-1
1.71E+12,128,128,-1,-1,-1,-1,66.1144761,5.707595239,71.82207134,-131.571578,-1,-1,-1,-1
1.71E+12,128,128,-1,-1,-1,-1,66.11281375,5.708603312,71.82141706,-131.5795964,-1,-1,-1,-1
1.71E+12,128,128,-1,-1,-1,-1,66.11122264,5.709613739,71.82083638,-131.5874424,-1,-1,-1,-1
1.71E+12,128,128,-1,-1,-1,-1,66.10970255,5.710626632,71.82032918,-131.5951135,-1,-1,-1,-1
1.71E+12,128,128,-1,-1,-1,-1,66.10825314,5.711642027,71.81989516,-131.6026075,-1,-1,-1,-1
1.71E+12,128,128,-1,-1,-1,-1,66.10687397,5.712659918,71.81953388,-131.6099228,-1,-1,-1,-1
1.71E+12,128,128,-1,-1,-1,-1,66.10556452,5.71368027,71.81924479,-131.6170578,-1,-1,-1,-1
1.71E+12,128,128,-1,-1,-1,-1,66.10432413,5.714703028,71.81902716,-131.6240113,-1,-1,-1,-1
1.71E+12,128,128,-1,-1,-1,-1,66.10315203,5.715728086,71.81888011,-131.6307824,-1,-1,-1,-1
1.71E+12,128,128,-1,-1,-1,-1,66.10204744,5.716755301,71.81880274,-131.6373705,-1,-1,-1,-1
1.71E+12,128,128,-1,-1,-1,-1,66.10100959,5.717784518,71.81879411,-131.6437755,-1,-1,-1,-1
1.71E+12,128,128,-1,-1,-1,-1,66.1000376,5.718815568,71.81885317,-131.6499974,-1,-1,-1,-1
1.71E+12,128,128,-1,-1,-1,-1,66.09913047,5.719848268,71.81897874,-131.6560366,-1,-1,-1,-1
1.71E+12,128,128,-1,-1,-1,-1,66.09828709,5.720882418,71.81916951,-131.6618937,-1,-1,-1,-1
1.71E+12,128,128,-1,-1,-1,-1,66.09750634,5.721917827,71.81942417,-131.6675698,-1,-1,-1,-1
1.71E+12,128,128,-1,-1,-1,-1,66.09678704,5.722954308,71.81974135,-131.6730661,-1,-1,-1,-1
1.71E+12,128,128,-1,-1,-1,-1,66.096128,5.723991643,71.82011964,-131.6783843,-1,-1,-1,-1
1.71E+12,128,128,-1,-1,-1,-1,66.09552795,5.72502959,71.82055754,-131.6835263,-1,-1,-1,-1
1.71E+12,128,128,-1,-1,-1,-1,66.09498563,5.726067896,71.82105352,-131.6884945,-1,-1,-1,-1
1.71E+12,128,128,-1,-1,-1,-1,66.09449983,5.727106264,71.8216061,-131.6932915,-1,-1,-1,-1
1.71E+12,128,128,-1,-1,-1,-1,66.09406936,5.728144387,71.82221375,-131.6979205,-1,-1,-1,-1
1.71E+12,128,128,-1,-1,-1,-1,66.09369292,5.72918198,71.8228749,-131.7023847,-1,-1,-1,-1
1.71E+12,128,128,-1,-1,-1,-1,66.09336922,5.730218736,71.82358795,-131.706688,-1,-1,-1,-1
1.71E+12,128,128,-1,-1,-1,-1,66.09309689,5.731254321,71.82435121,-131.7108344,-1,-1,-1,-1
1.71E+12,128,128,-1,-1,-1,-1,66.09287459,5.732288361,71.82516295,-131.7148284,-1,-1,-1,-1
1.71E+12,128,128,-1,-1,-1,-1,66.09270097,5.733320425,71.8260214,-131.7186746,-1,-1,-1,-1
1.71E+12,128,128,-1,-1,-1,-1,66.09257469,5.734350091,71.82692478,-131.7223783,-1,-1,-1,-1
1.71E+12,128,128,-1,-1,-1,-1,66.09249444,5.735376954,71.8278714,-131.7259447,-1,-1,-1,-1
1.71E+12,128,128,-1,-1,-1,-1,66.09245895,5.736400627,71.82885958,-131.7293796,-1,-1,-1,-1
1.71E+12,128,128,-1,-1,-1,-1,66.09246694,5.737420706,71.82988765,-131.7326889,-1,-1,-1,-1
1.71E+12,128,128,-1,-1,-1,-1,66.09251715,5.73843677,71.83095392,-131.735879,-1,-1,-1,-1
1.71E+12,128,128,-1,-1,-1,-1,66.09260836,5.7394484,71.83205676,-131.7389564,-1,-1,-1,-1
1.71E+12,128,128,-1,-1,-1,-1,66.09273935,5.740455153,71.8331945,-131.741928,-1,-1,-1,-1
1.71E+12,128,128,-1,-1,-1,-1,66.09290889,5.741456573,71.83436546,-131.7448007,-1,-1,-1,-1
1.71E+12,128,128,-1,-1,-1,-1,66.09311579,5.742452217,71.83556801,-131.7475818,-1,-1,-1,-1
1.71E+12,128,128,-1,-1,-1,-1,66.093359,5.743441651,71.83680066,-131.7502786,-1,-1,-1,-1
1.71E+12,128,128,-1,-1,-1,-1,66.09363753,5.744424447,71.83806197,-131.7528987,-1,-1,-1,-1
1.71E+12,128,128,-1,-1,-1,-1,66.09395034,5.745400197,71.83935054,-131.7554498,-1,-1,-1,-1
1.71E+12,128,128,-1,-1,-1,-1,66.09429644,5.746368499,71.84066494,-131.7579399,-1,-1,-1,-1
1.71E+12,128,128,-1,-1,-1,-1,66.0946748,5.747328952,71.84200376,-131.7603777,-1,-1,-1,-1
1.71E+12,128,128,-1,-1,-1,-1,66.09508444,5.748281146,71.84336559,-131.762772,-1,-1,-1,-1
1.71E+12,128,128,-1,-1,-1,-1,66.09552443,5.749224667,71.8447491,-131.7651318,-1,-1,-1,-1
1.71E+12,128,128,-1,-1,-1,-1,66.09599384,5.750159083,71.84615292,-131.7674665,-1,-1,-1,-1
1.71E+12,128,128,-1,-1,-1,-1,66.09649188,5.751083836,71.84757572,-131.7697854,-1,-1,-1,-1
1.71E+12,128,128,-1,-1,-1,-1,66.09701786,5.751998243,71.8490161,-131.7720981,-1,-1,-1,-1
1.71E+12,128,128,-1,-1,-1,-1,66.09757119,5.752901415,71.8504726,-131.7744142,-1,-1,-1,-1
1.71E+12,128,128,-1,-1,-1,-1,66.09815145,5.753792194,71.85194364,-131.7767434,-1,-1,-1,-1
1.71E+12,128,128,-1,-1,-1,-1,66.09875835,5.754669269,71.85342762,-131.7790955,-1,-1,-1,-1
1.71E+12,128,128,-1,-1,-1,-1,66.09939177,5.755531257,71.85492302,-131.7814803,-1,-1,-1,-1
1.71E+12,128,128,-1,-1,-1,-1,66.10005173,5.756376687,71.85642841,-131.7839077,-1,-1,-1,-1
1.71E+12,128,128,-1,-1,-1,-1,66.1007385,5.757203995,71.8579425,-131.7863876,-1,-1,-1,-1
1.71E+12,128,128,-1,-1,-1,-1,66.1014527,5.758011521,71.85946422,-131.7889299,-1,-1,-1,-1
1.71E+12,128,128,-1,-1,-1,-1,66.10219521,5.758797532,71.86099274,-131.7915443,-1,-1,-1,-1
1.71E+12,128,128,-1,-1,-1,-1,66.10296721,5.759560308,71.86252752,-131.7942406,-1,-1,-1,-1
1.71E+12,128,128,-1,-1,-1,-1,66.10377009,5.760298325,71.86406841,-131.7970285,-1,-1,-1,-1
1.71E+12,128,128,-1,-1,-1,-1,66.1046054,5.761010289,71.86561569,-131.7999177,-1,-1,-1,-1
1.71E+12,128,128,-1,-1,-1,-1,66.10547499,5.76169505,71.86717004,-131.8029177,-1,-1,-1,-1
1.71E+12,128,128,-1,-1,-1,-1,66.10638072,5.762351964,71.86873269,-131.8060378,-1,-1,-1,-1
1.71E+12,128,128,-1,-1,-1,-1,66.10732428,5.762981362,71.87030564,-131.8092874,-1,-1,-1,-1
1.71E+12,128,128,-1,-1,-1,-1,66.10830688,5.763584811,71.87189169,-131.8126755,-1,-1,-1,-1
1.71E+12,128,128,-1,-1,-1,-1,66.10932895,5.764165438,71.87349439,-131.8162112,-1,-1,-1,-1
1.71E+12,128,128,-1,-1,-1,-1,66.1103903,5.764727561,71.87511786,-131.8199033,-1,-1,-1,-1
1.71E+12,128,128,-1,-1,-1,-1,66.11149051,5.765275772,71.87676629,-131.8237606,-1,-1,-1,-1
1.71E+12,128,128,-1,-1,-1,-1,66.11262897,5.765814414,71.87844339,-131.8277917,-1,-1,-1,-1
1.71E+12,128,128,-1,-1,-1,-1,66.11380493,5.766347393,71.88015233,-131.8320053,-1,-1,-1,-1
1.71E+12,128,128,-1,-1,-1,-1,66.11501756,5.766878122,71.88189568,-131.83641,-1,-1,-1,-1
1.71E+12,128,128,-1,-1,-1,-1,66.11626586,5.767409634,71.8836755,-131.8410145,-1,-1,-1,-1
1.71E+12,128,128,-1,-1,-1,-1,66.11754861,5.76794485,71.88549346,-131.8458272,-1,-1,-1,-1
1.71E+12,128,128,-1,-1,-1,-1,66.11886438,5.768486751,71.88735113,-131.8508568,-1,-1,-1,-1
1.71E+12,128,128,-1,-1,-1,-1,66.12021182,5.769038191,71.88925001,-131.8561116,-1,-1,-1,-1
1.71E+12,128,128,-1,-1,-1,-1,66.12158964,5.769601774,71.89119142,-131.8616,-1,-1,-1,-1
1.71E+12,128,128,-1,-1,-1,-1,66.12299653,5.770179939,71.89317647,-131.8673304,-1,-1,-1,-1
1.71E+12,128,128,-1,-1,-1,-1,66.1244313,5.770774913,71.89520621,-131.8733107,-1,-1,-1,-1
1.71E+12,128,128,-1,-1,-1,-1,66.12589291,5.771388757,71.89728167,-131.8795492,-1,-1,-1,-1
1.71E+12,128,128,-1,-1,-1,-1,66.12738044,5.772023441,71.89940389,-131.8860534,-1,-1,-1,-1
1.71E+12,128,128,-1,-1,-1,-1,66.12889312,5.772680804,71.90157393,-131.892831,-1,-1,-1,-1
1.71E+12,128,128,-1,-1,-1,-1,66.13043046,5.77336257,71.90379303,-131.8998892,-1,-1,-1,-1
1.71E+12,128,128,-1,-1,-1,-1,66.13199229,5.774070373,71.90606267,-131.907235,-1,-1,-1,-1
1.71E+12,128,128,-1,-1,-1,-1,66.13357861,5.774805875,71.90838448,-131.9148751,-1,-1,-1,-1
1.71E+12,128,128,-1,-1,-1,-1,66.13518933,5.775570869,71.91076019,-131.9228157,-1,-1,-1,-1
1.71E+12,128,128,-1,-1,-1,-1,66.13682433,5.776367247,71.91319158,-131.931063,-1,-1,-1,-1
1.71E+12,128,128,-1,-1,-1,-1,66.13848334,5.777196987,71.91568032,-131.9396226,-1,-1,-1,-1
1.71E+12,128,128,-1,-1,-1,-1,66.14016582,5.778062178,71.918228,-131.9484996,-1,-1,-1,-1
1.71E+12,128,128,-1,-1,-1,-1,66.14187118,5.778965031,71.92083621,-131.9576989,-1,-1,-1,-1
1.71E+12,128,128,-1,-1,-1,-1,66.14359877,5.779907833,71.9235066,-131.967225,-1,-1,-1,-1
1.71E+12,128,128,-1,-1,-1,-1,66.14534779,5.780892975,71.92624076,-131.9770821,-1,-1,-1,-1
1.71E+12,128,128,-1,-1,-1,-1,66.14711732,5.781922952,71.92904027,-131.987274,-1,-1,-1,-1
1.71E+12,128,128,-1,-1,-1,-1,66.14890641,5.783000264,71.93190667,-131.997804,-1,-1,-1,-1
1.71E+12,128,128,-1,-1,-1,-1,66.15071394,5.784127402,71.93484134,-132.0086753,-1,-1,-1,-1
1.71E+12,128,128,-1,-1,-1,-1,66.15253862,5.785306888,71.93784551,-132.0198906,-1,-1,-1,-1
1.71E+12,128,128,-1,-1,-1,-1,66.15437905,5.786541253,71.9409203,-132.0314526,-1,-1,-1,-1
1.71E+12,128,128,-1,-1,-1,-1,66.15623369,5.787833006,71.9440667,-132.0433633,-1,-1,-1,-1
1.71E+12,128,128,-1,-1,-1,-1,66.15810096,5.789184621,71.94728558,-132.0556246,-1,-1,-1,-1
1.71E+12,128,128,-1,-1,-1,-1,66.15997924,5.790598504,71.95057774,-132.068238,-1,-1,-1,-1
1.71E+12,128,128,-1,-1,-1,-1,66.16186687,5.792076983,71.95394385,-132.0812048,-1,-1,-1,-1
1.71E+12,128,128,-1,-1,-1,-1,66.16376215,5.793622279,71.95738443,-132.0945257,-1,-1,-1,-1
1.71E+12,128,128,-1,-1,-1,-1,66.16566336,5.795236492,71.96089985,-132.1082011,-1,-1,-1,-1
1.71E+12,128,128,-1,-1,-1,-1,66.16756864,5.79692162,71.96449026,-132.1222312,-1,-1,-1,-1
1.71E+12,128,128,-1,-1,-1,-1,66.16947604,5.798679567,71.96815561,-132.1366159,-1,-1,-1,-1
1.71E+12,128,128,-1,-1,-1,-1,66.17138358,5.800512063,71.97189564,-132.1513544,-1,-1,-1,-1
1.71E+12,128,128,-1,-1,-1,-1,66.17328929,5.802420631,71.97570993,-132.166446,-1,-1,-1,-1
1.71E+12,128,128,-1,-1,-1,-1,66.17519115,5.804406604,71.97959775,-132.1818894,-1,-1,-1,-1
1.71E+12,128,128,-1,-1,-1,-1,66.17708706,5.806471149,71.98355821,-132.1976828,-1,-1,-1,-1
1.71E+12,128,128,-1,-1,-1,-1,66.17897502,5.808615256,71.98759027,-132.2138242,-1,-1,-1,-1
1.71E+12,128,128,-1,-1,-1,-1,66.18085303,5.810839699,71.99169272,-132.2303112,-1,-1,-1,-1
1.71E+12,128,128,-1,-1,-1,-1,66.18271907,5.813145059,71.99586413,-132.247141,-1,-1,-1,-1
1.71E+12,128,128,-1,-1,-1,-1,66.18457115,5.815531713,72.00010287,-132.2643104,-1,-1,-1,-1
1.71E+12,128,128,-1,-1,-1,-1,66.18640724,5.817999769,72.00440701,-132.2818162,-1,-1,-1,-1
1.71E+12,128,128,-1,-1,-1,-1,66.18822535,5.82054906,72.00877441,-132.2996546,-1,-1,-1,-1
1.71E+12,128,128,-1,-1,-1,-1,66.19002355,5.823179184,72.01320274,-132.3178219,-1,-1,-1,-1
1.71E+12,128,128,-1,-1,-1,-1,66.1918,5.825889481,72.01768949,-132.3363137,-1,-1,-1,-1
1.71E+12,128,128,-1,-1,-1,-1,66.19355295,5.828678995,72.02223194,-132.3551257,-1,-1,-1,-1
1.71E+12,128,128,-1,-1,-1,-1,66.19528072,5.831546491,72.02682721,-132.3742531,-1,-1,-1,-1
1.71E+12,128,128,-1,-1,-1,-1,66.19698171,5.834490495,72.0314722,-132.3936911,-1,-1,-1,-1
1.71E+12,128,128,-1,-1,-1,-1,66.1986544,5.837509247,72.03616365,-132.4134343,-1,-1,-1,-1
1.71E+12,128,128,-1,-1,-1,-1,66.2002974,5.840600688,72.04089809,-132.4334773,-1,-1,-1,-1
1.71E+12,128,128,-1,-1,-1,-1,66.20190936,5.843762487,72.04567185,-132.4538143,-1,-1,-1,-1
1.71E+12,128,128,-1,-1,-1,-1,66.20348896,5.846992032,72.050481,-132.4744394,-1,-1,-1,-1
1.71E+12,128,128,-1,-1,-1,-1,66.20503501,5.850286443,72.05532145,-132.4953464,-1,-1,-1,-1
1.71E+12,128,128,-1,-1,-1,-1,66.20654646,5.853642565,72.06018902,-132.516529,-1,-1,-1,-1
1.71E+12,128,128,-1,-1,-1,-1,66.20802245,5.857056976,72.06507943,-132.5379806,-1,-1,-1,-1
1.71E+12,128,128,-1,-1,-1,-1,66.20946231,5.860525988,72.0699883,-132.5596945,-1,-1,-1,-1
1.71E+12,128,128,-1,-1,-1,-1,66.21086549,5.864045637,72.07491113,-132.5816637,-1,-1,-1,-1
1.71E+12,128,128,-1,-1,-1,-1,66.21223158,5.867611697,72.07984328,-132.6038814,-1,-1,-1,-1
1.71E+12,128,128,-1,-1,-1,-1,66.21356031,5.871219679,72.08477999,-132.6263403,-1,-1,-1,-1
1.71E+12,128,128,-1,-1,-1,-1,66.21485148,5.874864846,72.08971633,-132.6490336,-1,-1,-1,-1
1.71E+12,128,128,-1,-1,-1,-1,66.21610504,5.878542281,72.09464733,-132.6719539,-1,-1,-1,-1
1.71E+12,128,128,-1,-1,-1,-1,66.21732109,5.882246889,72.09956798,-132.6950941,-1,-1,-1,-1
1.71E+12,128,128,-1,-1,-1,-1,66.21849991,5.885973372,72.10447329,-132.7184468,-1,-1,-1,-1
1.71E+12,128,128,-1,-1,-1,-1,66.21964197,5.88971622,72.10935819,-132.7420046,-1,-1,-1,-1
1.71E+12,128,128,-1,-1,-1,-1,66.22074786,5.89346977,72.11421763,-132.7657604,-1,-1,-1,-1
1.71E+12,128,128,-1,-1,-1,-1,66.22181836,5.897228242,72.1190466,-132.7897066,-1,-1,-1,-1
1.71E+12,128,128,-1,-1,-1,-1,66.22285442,5.900985695,72.12384012,-132.8138361,-1,-1,-1,-1
1.71E+12,128,128,-1,-1,-1,-1,66.22385711,5.904736046,72.12859316,-132.8381417,-1,-1,-1,-1
1.71E+12,128,128,-1,-1,-1,-1,66.22482766,5.908473079,72.13330073,-132.8626162,-1,-1,-1,-1
1.71E+12,128,128,-1,-1,-1,-1,66.2257675,5.91219047,72.13795798,-132.8872524,-1,-1,-1,-1
1.71E+12,128,128,-1,-1,-1,-1,66.22667826,5.915881822,72.14256008,-132.9120431,-1,-1,-1,-1
1.71E+12,128,128,-1,-1,-1,-1,66.22756166,5.91954065,72.14710231,-132.9369815,-1,-1,-1,-1
1.71E+12,128,128,-1,-1,-1,-1,66.22841963,5.923160396,72.15158002,-132.9620606,-1,-1,-1,-1
1.71E+12,128,128,-1,-1,-1,-1,66.22925426,5.926734482,72.15598874,-132.9872737,-1,-1,-1,-1
1.71E+12,128,128,-1,-1,-1,-1,66.23006776,5.930256329,72.16032408,-133.0126139,-1,-1,-1,-1
1.71E+12,128,128,-1,-1,-1,-1,66.23086244,5.933719362,72.1645818,-133.0380748,-1,-1,-1,-1
1.71E+12,128,128,-1,-1,-1,-1,66.23164071,5.937117009,72.16875772,-133.0636501,-1,-1,-1,-1
1.71E+12,128,128,-1,-1,-1,-1,66.23240512,5.94044271,72.17284783,-133.0893336,-1,-1,-1,-1
1.71E+12,128,128,-1,-1,-1,-1,66.23315834,5.943689947,72.17684828,-133.1151193,-1,-1,-1,-1
1.71E+12,128,128,-1,-1,-1,-1,66.23390313,5.946852303,72.18075543,-133.1410015,-1,-1,-1,-1
1.71E+12,128,128,-1,-1,-1,-1,66.2346424,5.949923468,72.18456587,-133.1669745,-1,-1,-1,-1
1.71E+12,128,128,-1,-1,-1,-1,66.23537917,5.952897202,72.18827638,-133.1930328,-1,-1,-1,-1
1.71E+12,128,128,-1,-1,-1,-1,66.2361166,5.955767396,72.191884,-133.2191713,-1,-1,-1,-1
1.71E+12,128,128,-1,-1,-1,-1,66.23685793,5.958528111,72.19538604,-133.2453846,-1,-1,-1,-1
1.71E+12,128,128,-1,-1,-1,-1,66.23760647,5.961173575,72.19878005,-133.271668,-1,-1,-1,-1
1.71E+12,128,128,-1,-1,-1,-1,66.23836564,5.963698179,72.20206382,-133.2980165,-1,-1,-1,-1
1.71E+12,128,128,-1,-1,-1,-1,66.2391389,5.966096525,72.20523542,-133.3244255,-1,-1,-1,-1
1.71E+12,128,128,-1,-1,-1,-1,66.23992983,5.968363463,72.20829329,-133.3508908,-1,-1,-1,-1
1.71E+12,128,128,-1,-1,-1,-1,66.24074202,5.970494095,72.21123611,-133.377408,-1,-1,-1,-1
1.71E+12,128,128,-1,-1,-1,-1,66.24157917,5.972483791,72.21406296,-133.4039732,-1,-1,-1,-1
1.71E+12,128,128,-1,-1,-1,-1,66.24244502,5.974328206,72.21677322,-133.4305827,-1,-1,-1,-1
1.71E+12,128,128,-1,-1,-1,-1,66.2433433,5.976023289,72.21936659,-133.4572328,-1,-1,-1,-1
1.71E+12,128,128,-1,-1,-1,-1,66.24427776,5.977565277,72.22184304,-133.4839201,-1,-1,-1,-1
1.71E+12,128,128,-1,-1,-1,-1,66.2452521,5.978950721,72.22420282,-133.5106416,-1,-1,-1,-1
1.71E+12,128,128,-1,-1,-1,-1,66.24626998,5.980176524,72.2264465,-133.5373941,-1,-1,-1,-1
1.71E+12,128,128,-1,-1,-1,-1,66.24733508,5.981239965,72.22857504,-133.5641749,-1,-1,-1,-1
1.71E+12,128,128,-1,-1,-1,-1,66.24845112,5.982138712,72.23058983,-133.5909813,-1,-1,-1,-1
1.71E+12,128,128,-1,-1,-1,-1,66.24962176,5.982870809,72.23249257,-133.6178109,-1,-1,-1,-1
1.71E+12,128,128,-1,-1,-1,-1,66.25085062,5.983434666,72.23428529,-133.6446615,-1,-1,-1,-1
1.71E+12,128,128,-1,-1,-1,-1,66.2521413,5.983829033,72.23597033,-133.6715313,-1,-1,-1,-1
1.71E+12,128,128,-1,-1,-1,-1,66.25349732,5.98405298,72.2375503,-133.6984184,-1,-1,-1,-1
1.71E+12,128,128,-1,-1,-1,-1,66.25492209,5.98410595,72.23902804,-133.7253213,-1,-1,-1,-1
1.71E+12,128,128,-1,-1,-1,-1,66.25641898,5.9839878,72.24040678,-133.7522385,-1,-1,-1,-1
1.71E+12,128,128,-1,-1,-1,-1,66.25799129,5.983698761,72.24169005,-133.779169,-1,-1,-1,-1
1.71E+12,128,128,-1,-1,-1,-1,66.25964223,5.983239409,72.24288164,-133.8061115,-1,-1,-1,-1
1.71E+12,128,128,-1,-1,-1,-1,66.26137495,5.982610628,72.24398558,-133.8330653,-1,-1,-1,-1
1.71E+12,128,128,-1,-1,-1,-1,66.26319248,5.98181363,72.24500611,-133.8600299,-1,-1,-1,-1
1.71E+12,128,128,-1,-1,-1,-1,66.2650977,5.980849997,72.24594769,-133.8870046,-1,-1,-1,-1
1.71E+12,128,128,-1,-1,-1,-1,66.26709333,5.979721682,72.24681501,-133.9139891,-1,-1,-1,-1
1.71E+12,128,128,-1,-1,-1,-1,66.26918195,5.978431026,72.24761298,-133.9409834,-1,-1,-1,-1
1.71E+12,128,128,-1,-1,-1,-1,66.271366,5.976980738,72.24834674,-133.9679872,-1,-1,-1,-1
1.71E+12,128,128,-1,-1,-1,-1,66.27364773,5.975373901,72.24902163,-133.9950005,-1,-1,-1,-1
1.71E+12,128,128,-1,-1,-1,-1,66.27602921,5.973613979,72.24964319,-134.0220236,-1,-1,-1,-1
1.71E+12,128,128,-1,-1,-1,-1,66.27851236,5.971704752,72.25021711,-134.0490564,-1,-1,-1,-1
1.71E+12,128,128,-1,-1,-1,-1,66.28109886,5.969650315,72.25074917,-134.0760994,-1,-1,-1,-1
1.71E+12,128,128,-1,-1,-1,-1,66.2837903,5.967455048,72.25124535,-134.1031529,-1,-1,-1,-1
1.71E+12,128,128,-1,-1,-1,-1,66.28658816,5.965123574,72.25171173,-134.1302175,-1,-1,-1,-1
1.71E+12,128,128,-1,-1,-1,-1,66.28949366,5.962660753,72.25215441,-134.1572936,-1,-1,-1,-1
1.71E+12,128,128,-1,-1,-1,-1,66.29250774,5.96007168,72.25257942,-134.1843819,-1,-1,-1,-1
1.71E+12,128,128,-1,-1,-1,-1,66.29563116,5.957361677,72.25299283,-134.2114829,-1,-1,-1,-1
1.71E+12,128,128,-1,-1,-1,-1,66.29886446,5.9545363,72.25340076,-134.2385974,-1,-1,-1,-1
1.71E+12,128,128,-1,-1,-1,-1,66.30220797,5.951601325,72.2538093,-134.2657259,-1,-1,-1,-1
1.71E+12,128,128,-1,-1,-1,-1,66.30566179,5.948562685,72.25422448,-134.2928693,-1,-1,-1,-1
1.71E+12,128,128,-1,-1,-1,-1,66.30922587,5.945426461,72.25465233,-134.3200284,-1,-1,-1,-1
1.71E+12,128,128,-1,-1,-1,-1,66.31289988,5.942198899,72.25509878,-134.3472039,-1,-1,-1,-1
1.71E+12,128,128,-1,-1,-1,-1,66.31668326,5.938886392,72.25556965,-134.3743968,-1,-1,-1,-1
1.71E+12,128,128,-1,-1,-1,-1,66.32057522,5.935495452,72.25607067,-134.4016076,-1,-1,-1,-1
1.71E+12,128,128,-1,-1,-1,-1,66.32457472,5.932032682,72.2566074,-134.4288374,-1,-1,-1,-1
1.71E+12,128,128,-1,-1,-1,-1,66.32868048,5.928504739,72.25718522,-134.4560867,-1,-1,-1,-1
1.71E+12,128,128,-1,-1,-1,-1,66.33289103,5.924918345,72.25780937,-134.4833566,-1,-1,-1,-1
1.71E+12,128,128,-1,-1,-1,-1,66.33720468,5.921280262,72.25848494,-134.5106478,-1,-1,-1,-1
1.71E+12,128,128,-1,-1,-1,-1,66.34161948,5.917597293,72.25921678,-134.537961,-1,-1,-1,-1
1.71E+12,128,128,-1,-1,-1,-1,66.34613325,5.913876263,72.26000952,-134.565297,-1,-1,-1,-1
1.71E+12,128,128,-1,-1,-1,-1,66.35074363,5.910123977,72.2608676,-134.5926565,-1,-1,-1,-1
1.71E+12,128,128,-1,-1,-1,-1,66.355448,5.906347197,72.2617952,-134.6200401,-1,-1,-1,-1
1.71E+12,128,128,-1,-1,-1,-1,66.36024351,5.902552619,72.26279613,-134.6474486,-1,-1,-1,-1
1.71E+12,128,128,-1,-1,-1,-1,66.36512706,5.898746868,72.26387393,-134.6748824,-1,-1,-1,-1
1.71E+12,128,128,-1,-1,-1,-1,66.37009538,5.894936517,72.26503189,-134.7023423,-1,-1,-1,-1
1.71E+12,128,128,-1,-1,-1,-1,66.37514494,5.891128059,72.266273,-134.7298288,-1,-1,-1,-1
1.71E+12,128,128,-1,-1,-1,-1,66.38027202,5.887327875,72.2675999,-134.7573423,-1,-1,-1,-1
1.71E+12,128,128,-1,-1,-1,-1,66.3854727,5.883542223,72.26901492,-134.7848834,-1,-1,-1,-1
1.71E+12,128,128,-1,-1,-1,-1,66.39074294,5.879777205,72.27052014,-134.8124525,-1,-1,-1,-1
1.71E+12,128,128,-1,-1,-1,-1,66.39607854,5.876038774,72.27211731,-134.8400501,-1,-1,-1,-1
1.71E+12,128,128,-1,-1,-1,-1,66.40147504,5.87233273,72.27380777,-134.8676767,-1,-1,-1,-1
1.71E+12,128,128,-1,-1,-1,-1,66.40692781,5.868664665,72.27559248,-134.8953325,-1,-1,-1,-1
1.71E+12,128,128,-1,-1,-1,-1,66.41243209,5.865039952,72.27747204,-134.9230179,-1,-1,-1,-1
1.71E+12,128,128,-1,-1,-1,-1,66.41798295,5.861463742,72.27944669,-134.9507332,-1,-1,-1,-1
1.71E+12,128,128,-1,-1,-1,-1,66.42357537,5.857940912,72.28151629,-134.9784789,-1,-1,-1,-1
1.71E+12,128,128,-1,-1,-1,-1,66.42920425,5.854476043,72.2836803,-135.0062551,-1,-1,-1,-1
1.71E+12,128,128,-1,-1,-1,-1,66.43486433,5.851073484,72.28593781,-135.0340622,-1,-1,-1,-1
1.71E+12,128,128,-1,-1,-1,-1,66.44055019,5.847737407,72.28828759,-135.0619,-1,-1,-1,-1
1.71E+12,128,128,-1,-1,-1,-1,66.44625633,5.844471765,72.2907281,-135.0897687,-1,-1,-1,-1
1.71E+12,128,128,-1,-1,-1,-1,66.45197716,5.841280248,72.29325741,-135.1176682,-1,-1,-1,-1
1.71E+12,128,128,-1,-1,-1,-1,66.45770696,5.838166292,72.29587326,-135.1455982,-1,-1,-1,-1
1.71E+12,128,128,-1,-1,-1,-1,66.46343991,5.835133044,72.29857296,-135.1735587,-1,-1,-1,-1
1.71E+12,128,128,-1,-1,-1,-1,66.46917013,5.832183323,72.30135345,-135.2015494,-1,-1,-1,-1
1.71E+12,128,128,-1,-1,-1,-1,66.47489171,5.829319706,72.30421142,-135.2295702,-1,-1,-1,-1
1.71E+12,128,128,-1,-1,-1,-1,66.48059877,5.826544491,72.30714327,-135.2576206,-1,-1,-1,-1
1.71E+12,128,128,-1,-1,-1,-1,66.4862854,5.823859719,72.31014512,-135.2857005,-1,-1,-1,-1
1.71E+12,128,128,-1,-1,-1,-1,66.4919456,5.821267227,72.31321283,-135.3138093,-1,-1,-1,-1
1.71E+12,128,128,-1,-1,-1,-1,66.49757335,5.818768569,72.31634192,-135.3419467,-1,-1,-1,-1
1.71E+12,128,128,-1,-1,-1,-1,66.50316259,5.816364993,72.31952759,-135.3701121,-1,-1,-1,-1
1.71E+12,128,128,-1,-1,-1,-1,66.50870732,5.81405747,72.32276479,-135.398305,-1,-1,-1,-1
1.71E+12,128,128,-1,-1,-1,-1,66.5142016,5.811846709,72.32604831,-135.4265248,-1,-1,-1,-1
1.71E+12,128,128,-1,-1,-1,-1,66.51963954,5.809733176,72.32937271,-135.4547709,-1,-1,-1,-1
1.71E+12,128,128,-1,-1,-1,-1,66.52501522,5.807717111,72.33273233,-135.4830427,-1,-1,-1,-1
1.71E+12,128,128,-1,-1,-1,-1,66.53032285,5.805798533,72.33612139,-135.5113393,-1,-1,-1,-1
1.71E+12,128,128,-1,-1,-1,-1,66.53555675,5.803977208,72.33953396,-135.5396601,-1,-1,-1,-1
1.71E+12,128,128,-1,-1,-1,-1,66.54071131,5.802252645,72.34296396,-135.5680044,-1,-1,-1,-1
1.71E+12,128,128,-1,-1,-1,-1,66.54578098,5.800624142,72.34640512,-135.5963715,-1,-1,-1,-1
1.71E+12,128,128,-1,-1,-1,-1,66.55076025,5.799090812,72.34985106,-135.6247605,-1,-1,-1,-1
1.71E+12,128,128,-1,-1,-1,-1,66.55564377,5.797651594,72.35329536,-135.6531708,-1,-1,-1,-1
1.71E+12,128,128,-1,-1,-1,-1,66.56042628,5.796305271,72.35673155,-135.6816015,-1,-1,-1,-1
1.71E+12,128,128,-1,-1,-1,-1,66.5651027,5.795050498,72.3601532,-135.7100518,-1,-1,-1,-1
1.71E+12,128,128,-1,-1,-1,-1,66.56966803,5.793885825,72.36355386,-135.738521,-1,-1,-1,-1
1.71E+12,128,128,-1,-1,-1,-1,66.57411743,5.792809714,72.36692715,-135.7670082,-1,-1,-1,-1
1.71E+12,128,128,-1,-1,-1,-1,66.57844623,5.791820571,72.3702668,-135.7955123,-1,-1,-1,-1
1.71E+12,128,128,-1,-1,-1,-1,66.58264989,5.790916802,72.37356669,-135.8240325,-1,-1,-1,-1
1.71E+12,128,128,-1,-1,-1,-1,66.58672397,5.790096865,72.37682083,-135.8525677,-1,-1,-1,-1
1.71E+12,128,128,-1,-1,-1,-1,66.59066409,5.789359395,72.38002348,-135.8811169,-1,-1,-1,-1
1.71E+12,128,128,-1,-1,-1,-1,66.59446596,5.788703256,72.38316922,-135.9096789,-1,-1,-1,-1
1.71E+12,128,128,-1,-1,-1,-1,66.5981254,5.788127466,72.38625286,-135.9382528,-1,-1,-1,-1
1.71E+12,128,128,-1,-1,-1,-1,66.60163828,5.787631093,72.38926937,-135.9668375,-1,-1,-1,-1
1.71E+12,128,128,-1,-1,-1,-1,66.60500058,5.787213295,72.39221388,-135.9954321,-1,-1,-1,-1
1.71E+12,128,128,-1,-1,-1,-1,66.60820822,5.78687338,72.39508161,-136.0240358,-1,-1,-1,-1
1.71E+12,128,128,-1,-1,-1,-1,66.61125706,5.786610794,72.39786785,-136.0526477,-1,-1,-1,-1
1.71E+12,128,128,-1,-1,-1,-1,66.61414286,5.78642509,72.40056795,-136.081267,-1,-1,-1,-1
1.71E+12,128,128,-1,-1,-1,-1,66.61686144,5.786315822,72.40317727,-136.1098929,-1,-1,-1,-1
1.71E+12,128,128,-1,-1,-1,-1,66.61940874,5.786282388,72.40569113,-136.1385248,-1,-1,-1,-1
1.71E+12,128,128,-1,-1,-1,-1,66.62178079,5.78632401,72.4081048,-136.1671621,-1,-1,-1,-1
1.71E+12,128,128,-1,-1,-1,-1,66.62397364,5.786439834,72.41041348,-136.1958042,-1,-1,-1,-1
1.71E+12,128,128,-1,-1,-1,-1,66.62598361,5.786628601,72.41261221,-136.2244506,-1,-1,-1,-1
1.71E+12,128,128,-1,-1,-1,-1,66.62780758,5.786888208,72.41469578,-136.253101,-1,-1,-1,-1
1.71E+12,128,128,-1,-1,-1,-1,66.62944311,5.787215461,72.41665857,-136.2817549,-1,-1,-1,-1
1.71E+12,128,128,-1,-1,-1,-1,66.63088876,5.787605753,72.41849451,-136.310412,-1,-1,-1,-1
1.71E+12,128,128,-1,-1,-1,-1,66.6321439,5.788053425,72.42019733,-136.3390721,-1,-1,-1,-1
1.71E+12,128,128,-1,-1,-1,-1,66.63320846,5.788552672,72.42176113,-136.367735,-1,-1,-1,-1
1.71E+12,128,128,-1,-1,-1,-1,66.63408284,5.789098107,72.42318095,-136.3964004,-1,-1,-1,-1
1.71E+12,128,128,-1,-1,-1,-1,66.63476783,5.78968497,72.4244528,-136.425068,-1,-1,-1,-1
1.71E+12,128,128,-1,-1,-1,-1,66.63526454,5.790309152,72.42557369,-136.4537374,-1,-1,-1,-1
1.71E+12,128,128,-1,-1,-1,-1,66.63557448,5.790967076,72.42654156,-136.482408,-1,-1,-1,-1
1.71E+12,128,128,-1,-1,-1,-1,66.63569966,5.791655414,72.42735507,-136.5110793,-1,-1,-1,-1
1.71E+12,128,128,-1,-1,-1,-1,66.63564255,5.792370914,72.42801346,-136.5397503,-1,-1,-1,-1
1.71E+12,128,128,-1,-1,-1,-1,66.63540583,5.793110624,72.42851646,-136.5684205,-1,-1,-1,-1
1.71E+12,128,128,-1,-1,-1,-1,66.63499226,5.793872027,72.42886428,-136.5970888,-1,-1,-1,-1
1.71E+12,128,128,-1,-1,-1,-1,66.6344047,5.79465293,72.42905763,-136.6257543,-1,-1,-1,-1
1.71E+12,128,128,-1,-1,-1,-1,66.63364612,5.795451494,72.42909761,-136.6544158,-1,-1,-1,-1
1.71E+12,128,128,-1,-1,-1,-1,66.63271947,5.796266225,72.42898569,-136.6830724,-1,-1,-1,-1
1.71E+12,128,128,-1,-1,-1,-1,66.63162776,5.797095917,72.42872368,-136.7117229,-1,-1,-1,-1
1.71E+12,128,128,-1,-1,-1,-1,66.63037404,5.797939635,72.42831367,-136.7403664,-1,-1,-1,-1
1.71E+12,128,128,-1,-1,-1,-1,66.62896127,5.798796708,72.42775797,-136.7690018,-1,-1,-1,-1
1.71E+12,128,128,-1,-1,-1,-1,66.62739223,5.799666705,72.42705893,-136.7976283,-1,-1,-1,-1
1.71E+12,128,128,-1,-1,-1,-1,66.62566969,5.800549295,72.42621898,-136.8262448,-1,-1,-1,-1
1.71E+12,128,128,-1,-1,-1,-1,66.62379659,5.801444121,72.42524071,-136.8548504,-1,-1,-1,-1
1.71E+12,128,128,-1,-1,-1,-1,66.62177606,5.802350775,72.42412684,-136.8834442,-1,-1,-1,-1
1.71E+12,128,128,-1,-1,-1,-1,66.61961151,5.803268843,72.42288035,-136.9120253,-1,-1,-1,-1
1.71E+12,128,128,-1,-1,-1,-1,66.61730662,5.804197888,72.42150451,-136.9405929,-1,-1,-1,-1
1.71E+12,128,128,-1,-1,-1,-1,66.61486532,5.805137462,72.42000278,-136.9691461,-1,-1,-1,-1
1.71E+12,128,128,-1,-1,-1,-1,66.61229169,5.806087151,72.41837884,-136.9976842,-1,-1,-1,-1
1.71E+12,128,128,-1,-1,-1,-1,66.60959,5.80704648,72.41663648,-137.0262063,-1,-1,-1,-1
1.71E+12,128,128,-1,-1,-1,-1,66.60676468,5.808014871,72.41477955,-137.0547115,-1,-1,-1,-1
1.71E+12,128,128,-1,-1,-1,-1,66.60382031,5.808991727,72.41281204,-137.0831991,-1,-1,-1,-1
1.71E+12,128,128,-1,-1,-1,-1,66.60076174,5.809976439,72.41073818,-137.1116683,-1,-1,-1,-1
1.71E+12,128,128,-1,-1,-1,-1,66.59759399,5.81096835,72.40856234,-137.1401184,-1,-1,-1,-1
1.71E+12,128,128,-1,-1,-1,-1,66.59432225,5.811966786,72.40628904,-137.1685485,-1,-1,-1,-1
1.71E+12,128,128,-1,-1,-1,-1,66.59095192,5.812971112,72.40392304,-137.1969577,-1,-1,-1,-1
1.71E+12,128,128,-1,-1,-1,-1,66.58748858,5.813980725,72.4014693,-137.2253454,-1,-1,-1,-1
1.71E+12,128,128,-1,-1,-1,-1,66.58393781,5.814995072,72.39893289,-137.2537105,-1,-1,-1,-1
1.71E+12,128,128,-1,-1,-1,-1,66.58030529,5.816013662,72.39631895,-137.2820523,-1,-1,-1,-1
1.71E+12,128,128,-1,-1,-1,-1,66.57659673,5.817036047,72.39363278,-137.3103701,-1,-1,-1,-1
1.71E+12,128,128,-1,-1,-1,-1,66.57281792,5.818061848,72.39087977,-137.3386632,-1,-1,-1,-1
1.71E+12,128,128,-1,-1,-1,-1,66.5689747,5.819090727,72.38806543,-137.3669305,-1,-1,-1,-1
1.71E+12,128,128,-1,-1,-1,-1,66.56507291,5.820122306,72.38519522,-137.3951714,-1,-1,-1,-1
1.71E+12,128,128,-1,-1,-1,-1,66.56111838,5.821156225,72.38227461,-137.4233849,-1,-1,-1,-1
1.71E+12,128,128,-1,-1,-1,-1,66.55711696,5.822192173,72.37930913,-137.4515701,-1,-1,-1,-1
1.71E+12,128,128,-1,-1,-1,-1,66.55307447,5.823229844,72.37630432,-137.4797262,-1,-1,-1,-1
1.71E+12,128,128,-1,-1,-1,-1,66.54899675,5.824268946,72.3732657,-137.5078524,-1,-1,-1,-1
1.71E+12,128,128,-1,-1,-1,-1,66.5448895,5.825309201,72.3701987,-137.535948,-1,-1,-1,-1
1.71E+12,128,128,-1,-1,-1,-1,66.54075836,5.826350363,72.36710872,-137.5640121,-1,-1,-1,-1
1.71E+12,128,128,-1,-1,-1,-1,66.53660891,5.827392242,72.36400115,-137.5920441,-1,-1,-1,-1
1.71E+12,128,128,-1,-1,-1,-1,66.53244666,5.828434695,72.36088135,-137.6200433,-1,-1,-1,-1
1.71E+12,128,128,-1,-1,-1,-1,66.52827707,5.829477582,72.35775465,-137.6480088,-1,-1,-1,-1
1.71E+12,128,128,-1,-1,-1,-1,66.52410557,5.830520733,72.35462631,-137.6759398,-1,-1,-1,-1
1.71E+12,128,128,-1,-1,-1,-1,66.51993753,5.83156396,72.35150149,-137.7038356,-1,-1,-1,-1
1.71E+12,128,128,-1,-1,-1,-1,66.51577815,5.832607047,72.3483852,-137.7316955,-1,-1,-1,-1
1.71E+12,128,128,-1,-1,-1,-1,66.51163251,5.833649805,72.34528231,-137.7595187,-1,-1,-1,-1
1.71E+12,128,128,-1,-1,-1,-1,66.50750548,5.834692061,72.34219754,-137.7873046,-1,-1,-1,-1
1.71E+12,128,128,-1,-1,-1,-1,66.50340178,5.835733624,72.33913541,-137.8150524,-1,-1,-1,-1
1.71E+12,128,128,-1,-1,-1,-1,66.49932597,5.836774302,72.33610028,-137.8427615,-1,-1,-1,-1
1.71E+12,128,128,-1,-1,-1,-1,66.49528244,5.837813938,72.33309638,-137.8704313,-1,-1,-1,-1
1.71E+12,128,128,-1,-1,-1,-1,66.49127546,5.838852424,72.33012788,-137.8980613,-1,-1,-1,-1
1.71E+12,128,128,-1,-1,-1,-1,66.48730915,5.839889712,72.32719887,-137.9256508,-1,-1,-1,-1
1.71E+12,128,128,-1,-1,-1,-1,66.48338741,5.840925819,72.32431323,-137.9531994,-1,-1,-1,-1
1.71E+12,128,128,-1,-1,-1,-1,66.47951391,5.841960814,72.32147473,-137.9807064,-1,-1,-1,-1
1.71E+12,128,128,-1,-1,-1,-1,66.47569213,5.842994784,72.31868691,-138.0081716,-1,-1,-1,-1
1.71E+12,128,128,-1,-1,-1,-1,66.47192528,5.844027807,72.31595308,-138.0355944,-1,-1,-1,-1
1.71E+12,128,128,-1,-1,-1,-1,66.46821636,5.845059955,72.31327632,-138.0629744,-1,-1,-1,-1
1.71E+12,128,128,-1,-1,-1,-1,66.46456818,5.846091262,72.31065944,-138.0903112,-1,-1,-1,-1
1.71E+12,128,128,-1,-1,-1,-1,66.46098332,5.847121756,72.30810508,-138.1176045,-1,-1,-1,-1
1.71E+12,128,128,-1,-1,-1,-1,66.45746421,5.84815151,72.30561572,-138.1448539,-1,-1,-1,-1
1.71E+12,128,128,-1,-1,-1,-1,66.45401308,5.849180589,72.30319366,-138.172059,-1,-1,-1,-1
1.71E+12,128,128,-1,-1,-1,-1,66.45063198,5.850209032,72.30084101,-138.1992197,-1,-1,-1,-1
1.71E+12,128,128,-1,-1,-1,-1,66.44732278,5.851236862,72.29855964,-138.2263357,-1,-1,-1,-1
1.71E+12,128,128,-1,-1,-1,-1,66.44408715,5.852264122,72.29635127,-138.2534068,-1,-1,-1,-1
1.71E+12,128,128,-1,-1,-1,-1,66.44092649,5.853290874,72.29421737,-138.280433,-1,-1,-1,-1
1.71E+12,128,128,-1,-1,-1,-1,66.43784195,5.854317176,72.29215913,-138.3074141,-1,-1,-1,-1
1.71E+12,128,128,-1,-1,-1,-1,66.43483448,5.855343092,72.29017757,-138.33435,-1,-1,-1,-1
1.71E+12,128,128,-1,-1,-1,-1,66.43190489,5.856368688,72.28827358,-138.3612407,-1,-1,-1,-1
1.71E+12,128,128,-1,-1,-1,-1,66.42905385,5.857394045,72.2864479,-138.3880858,-1,-1,-1,-1
1.71E+12,128,128,-1,-1,-1,-1,66.42628181,5.858419233,72.28470104,-138.4148855,-1,-1,-1,-1
1.71E+12,128,128,-1,-1,-1,-1,66.423589,5.859444301,72.2830333,-138.4416397,-1,-1,-1,-1
1.71E+12,128,128,-1,-1,-1,-1,66.42097546,5.860469301,72.28144476,-138.4683485,-1,-1,-1,-1
1.71E+12,128,128,-1,-1,-1,-1,66.41844101,5.861494306,72.27993531,-138.4950118,-1,-1,-1,-1
1.71E+12,128,128,-1,-1,-1,-1,66.41598528,5.862519362,72.27850464,-138.5216298,-1,-1,-1,-1
1.71E+12,128,128,-1,-1,-1,-1,66.41360775,5.863544449,72.2771522,-138.5482028,-1,-1,-1,-1
1.71E+12,128,128,-1,-1,-1,-1,66.41130769,5.864569545,72.27587724,-138.5747307,-1,-1,-1,-1
1.71E+12,128,128,-1,-1,-1,-1,66.40908427,5.865594642,72.27467891,-138.6012137,-1,-1,-1,-1
1.71E+12,128,128,-1,-1,-1,-1,66.40693652,5.866619704,72.27355622,-138.6276517,-1,-1,-1,-1
1.71E+12,128,128,-1,-1,-1,-1,66.40486333,5.867644689,72.27250802,-138.654045,-1,-1,-1,-1
1.71E+12,128,128,-1,-1,-1,-1,66.40286342,5.868669527,72.27153295,-138.6803934,-1,-1,-1,-1
1.71E+12,128,128,-1,-1,-1,-1,66.4009353,5.869694105,72.27062941,-138.706697,-1,-1,-1,-1
1.71E+12,128,128,-1,-1,-1,-1,66.39907742,5.870718297,72.26979572,-138.7329562,-1,-1,-1,-1
1.71E+12,128,128,-1,-1,-1,-1,66.39728816,5.871741947,72.26903011,-138.759171,-1,-1,-1,-1
1.71E+12,128,128,-1,-1,-1,-1,66.3955658,5.872764875,72.26833068,-138.7853418,-1,-1,-1,-1
1.71E+12,128,128,-1,-1,-1,-1,66.39390851,5.873786895,72.26769541,-138.8114688,-1,-1,-1,-1
1.71E+12,128,128,-1,-1,-1,-1,66.39231438,5.874807781,72.26712216,-138.8375524,-1,-1,-1,-1
1.71E+12,128,128,-1,-1,-1,-1,66.39078146,5.87582724,72.2666087,-138.8635932,-1,-1,-1,-1
1.71E+12,128,128,-1,-1,-1,-1,66.3893077,5.87684497,72.26615267,-138.8895913,-1,-1,-1,-1
1.71E+12,128,128,-1,-1,-1,-1,66.38789095,5.87786068,72.26575163,-138.9155472,-1,-1,-1,-1
1.71E+12,128,128,-1,-1,-1,-1,66.38652895,5.878874062,72.26540302,-138.9414612,-1,-1,-1,-1
1.71E+12,128,128,-1,-1,-1,-1,66.38521942,5.879884799,72.26510422,-138.9673335,-1,-1,-1,-1
1.71E+12,128,128,-1,-1,-1,-1,66.38396008,5.880892555,72.26485264,-138.9931646,-1,-1,-1,-1
1.71E+12,128,128,-1,-1,-1,-1,66.38274861,5.881896978,72.26464559,-139.0189549,-1,-1,-1,-1
1.71E+12,128,128,-1,-1,-1,-1,66.38158266,5.882897707,72.26448037,-139.0447046,-1,-1,-1,-1
1.71E+12,128,128,-1,-1,-1,-1,66.38045991,5.883894369,72.26435428,-139.0704141,-1,-1,-1,-1
1.71E+12,128,128,-1,-1,-1,-1,66.37937801,5.884886554,72.26426456,-139.0960838,-1,-1,-1,-1
1.71E+12,128,128,-1,-1,-1,-1,66.37833458,5.885873828,72.2642084,-139.1217141,-1,-1,-1,-1
1.71E+12,128,128,-1,-1,-1,-1,66.37732727,5.886855728,72.26418299,-139.1473055,-1,-1,-1,-1
1.71E+12,128,128,-1,-1,-1,-1,66.37635375,5.887831732,72.26418548,-139.1728583,-1,-1,-1,-1
1.71E+12,128,128,-1,-1,-1,-1,66.37541169,5.888801294,72.26421298,-139.1983729,-1,-1,-1,-1
1.71E+12,128,128,-1,-1,-1,-1,66.37449878,5.889763856,72.26426264,-139.2238497,-1,-1,-1,-1
1.71E+12,128,128,-1,-1,-1,-1,66.37361277,5.890718836,72.2643316,-139.249289,-1,-1,-1,-1
1.71E+12,128,128,-1,-1,-1,-1,66.37275145,5.891665625,72.26441708,-139.2746911,-1,-1,-1,-1
1.71E+12,128,128,-1,-1,-1,-1,66.3719127,5.892603603,72.2645163,-139.3000565,-1,-1,-1,-1
1.71E+12,128,128,-1,-1,-1,-1,66.37109445,5.893532136,72.26462659,-139.3253856,-1,-1,-1,-1
1.71E+12,128,128,-1,-1,-1,-1,66.37029466,5.894450584,72.26474524,-139.3506787,-1,-1,-1,-1
1.71E+12,128,128,-1,-1,-1,-1,66.36951131,5.895358315,72.26486963,-139.375936,-1,-1,-1,-1
1.71E+12,128,128,-1,-1,-1,-1,66.36874249,5.896254706,72.2649972,-139.4011579,-1,-1,-1,-1
1.71E+12,128,128,-1,-1,-1,-1,66.36798635,5.897139156,72.26512551,-139.4263448,-1,-1,-1,-1
1.71E+12,128,128,-1,-1,-1,-1,66.36724111,5.898011062,72.26525217,-139.4514968,-1,-1,-1,-1
1.71E+12,128,128,-1,-1,-1,-1,66.36650507,5.898869783,72.26537486,-139.4766144,-1,-1,-1,-1
1.71E+12,128,128,-1,-1,-1,-1,66.36577665,5.899714675,72.26549133,-139.5016978,-1,-1,-1,-1
1.71E+12,128,128,-1,-1,-1,-1,66.36505437,5.90054509,72.26559946,-139.5267475,-1,-1,-1,-1
1.71E+12,128,128,-1,-1,-1,-1,66.36433686,5.901360333,72.26569719,-139.5517637,-1,-1,-1,-1
1.71E+12,128,128,-1,-1,-1,-1,66.36362285,5.902159694,72.26578254,-139.5767467,-1,-1,-1,-1
1.71E+12,128,128,-1,-1,-1,-1,66.36291109,5.902942482,72.26585357,-139.6016966,-1,-1,-1,-1
1.71E+12,128,128,-1,-1,-1,-1,66.3622004,5.903708039,72.26590844,-139.6266139,-1,-1,-1,-1
1.71E+12,128,128,-1,-1,-1,-1,66.36148968,5.904455717,72.2659454,-139.6514986,-1,-1,-1,-1
1.71E+12,128,128,-1,-1,-1,-1,66.36077801,5.90518489,72.2659629,-139.6763511,-1,-1,-1,-1
1.71E+12,128,128,-1,-1,-1,-1,66.36006457,5.905894964,72.26595953,-139.7011717,-1,-1,-1,-1
1.71E+12,128,128,-1,-1,-1,-1,66.35934864,5.906585381,72.26593402,-139.7259607,-1,-1,-1,-1
1.71E+12,128,128,-1,-1,-1,-1,66.35862961,5.907255607,72.26588522,-139.7507184,-1,-1,-1,-1
1.71E+12,128,128,-1,-1,-1,-1,66.35790689,5.907905118,72.26581201,-139.7754449,-1,-1,-1,-1
1.71E+12,128,128,-1,-1,-1,-1,66.35717999,5.908533384,72.26571337,-139.8001406,-1,-1,-1,-1
1.71E+12,128,128,-1,-1,-1,-1,66.35644849,5.909139828,72.26558832,-139.8248057,-1,-1,-1,-1
1.71E+12,128,128,-1,-1,-1,-1,66.35571212,5.909723788,72.2654359,-139.8494406,-1,-1,-1,-1
1.71E+12,128,128,-1,-1,-1,-1,66.35497073,5.910284468,72.2652552,-139.8740455,-1,-1,-1,-1
1.71E+12,128,128,-1,-1,-1,-1,66.35422445,5.910820872,72.26504532,-139.8986207,-1,-1,-1,-1
1.71E+12,128,128,-1,-1,-1,-1,66.35347354,5.911331764,72.26480531,-139.9231665,-1,-1,-1,-1
1.71E+12,128,128,-1,-1,-1,-1,66.35271849,5.911815709,72.2645342,-139.9476834,-1,-1,-1,-1
1.71E+12,128,128,-1,-1,-1,-1,66.35195999,5.912271145,72.26423114,-139.9721716,-1,-1,-1,-1
1.71E+12,128,128,-1,-1,-1,-1,66.35119901,5.91269639,72.26389539,-139.9966316,-1,-1,-1,-1
1.71E+12,128,128,-1,-1,-1,-1,66.35043674,5.913089652,72.26352639,-140.0210638,-1,-1,-1,-1
1.71E+12,128,128,-1,-1,-1,-1,66.34967469,5.913449058,72.26312375,-140.0454685,-1,-1,-1,-1
1.71E+12,128,128,-1,-1,-1,-1,66.34891474,5.913772708,72.26268744,-140.0698458,-1,-1,-1,-1
1.71E+12,128,128,-1,-1,-1,-1,66.34815908,5.914058805,72.26221788,-140.0941962,-1,-1,-1,-1
1.71E+12,128,128,-1,-1,-1,-1,66.34741018,5.914305813,72.26171599,-140.1185196,-1,-1,-1,-1
1.71E+12,128,128,-1,-1,-1,-1,66.34667077,5.914512477,72.26118324,-140.1428163,-1,-1,-1,-1
1.71E+12,128,128,-1,-1,-1,-1,66.34594385,5.91467781,72.26062166,-140.1670863,-1,-1,-1,-1
1.71E+12,128,128,-1,-1,-1,-1,66.34523257,5.914801203,72.26003377,-140.1913296,-1,-1,-1,-1
1.71E+12,128,128,-1,-1,-1,-1,66.34453981,5.914882835,72.25942265,-140.2155462,-1,-1,-1,-1
1.71E+12,128,128,-1,-1,-1,-1,66.34386802,5.914924083,72.25879211,-140.2397359,-1,-1,-1,-1
1.71E+12,128,128,-1,-1,-1,-1,66.34321901,5.914927838,72.25814684,-140.2638985,-1,-1,-1,-1
1.71E+12,128,128,-1,-1,-1,-1,66.34259391,5.914898398,72.2574923,-140.2880337,-1,-1,-1,-1
1.71E+12,128,128,-1,-1,-1,-1,66.34199345,5.914840723,72.25683417,-140.312141,-1,-1,-1,-1
1.71E+12,128,128,-1,-1,-1,-1,66.34141822,5.914759614,72.25617783,-140.3362199,-1,-1,-1,-1
1.71E+12,128,128,-1,-1,-1,-1,66.34086882,5.9146594,72.25552822,-140.36027,-1,-1,-1,-1
1.71E+12,128,128,-1,-1,-1,-1,66.34034582,5.914544014,72.25488984,-140.3842909,-1,-1,-1,-1
1.71E+12,128,128,-1,-1,-1,-1,66.33984964,5.914417008,72.25426664,-140.4082823,-1,-1,-1,-1
1.71E+12,128,128,-1,-1,-1,-1,66.33938048,5.91428174,72.25366222,-140.4322443,-1,-1,-1,-1
1.71E+12,128,128,-1,-1,-1,-1,66.33893843,5.914141432,72.25307986,-140.4561771,-1,-1,-1,-1
1.71E+12,128,128,-1,-1,-1,-1,66.33852359,5.913998994,72.25252258,-140.4800811,-1,-1,-1,-1
1.71E+12,128,128,-1,-1,-1,-1,66.33813625,5.913857077,72.25199332,-140.5039567,-1,-1,-1,-1
1.71E+12,128,128,-1,-1,-1,-1,66.33777679,5.913718169,72.25149496,-140.5278044,-1,-1,-1,-1
1.71E+12,128,128,-1,-1,-1,-1,66.33744575,5.913584544,72.25103029,-140.5516247,-1,-1,-1,-1
1.71E+12,128,128,-1,-1,-1,-1,66.33714383,5.913458292,72.25060212,-140.5754182,-1,-1,-1,-1
1.71E+12,128,128,-1,-1,-1,-1,66.33687194,5.913341361,72.2502133,-140.5991854,-1,-1,-1,-1
1.71E+12,128,128,-1,-1,-1,-1,66.33663117,5.91323558,72.24986675,-140.622927,-1,-1,-1,-1
