Shimmer_89F4_TimestampSync_Unix_CAL,Shimmer_89F4_ECG_EMG_Status1_LPF_CAL,Shimmer_89F4_ECG_EMG_Status2_LPF_CAL,Shimmer_89F4_ECG_IBI_LA_RA_LPF_CAL,Shimmer_89F4_ECG_IBI_LL_LA_LPF_CAL,Shimmer_89F4_ECG_IBI_LL_RA_LPF_CAL,Shimmer_89F4_ECG_IBI_Vx_RL_LPF_CAL,Shimmer_89F4_ECG_LA_RA_24BIT_LPF_CAL,Shimmer_89F4_ECG_LL_LA_24BIT_LPF_CAL,Shimmer_89F4_ECG_LL_RA_24BIT_LPF_CAL,Shimmer_89F4_ECG_Vx_RL_24BIT_LPF_CAL,Shimmer_89F4_ECGtoHR_LA_RA_LPF_CAL,Shimmer_89F4_ECGtoHR_LL_LA_LPF_CAL,Shimmer_89F4_ECGtoHR_LL_RA_LPF_CAL,Shimmer_89F4_ECGtoHR_Vx_RL_LPF_CAL
1.71E+12,128,128,-1,-1,-1,-1,-5.718956675,-16.32545189,-22.04440857,-4.125501409,-1,-1,-1,-1
1.71E+12,128,128,-1,-1,-1,-1,-5.718956675,-16.32545189,-22.04440857,-4.125501409,-1,-1,-1,-1
1.71E+12,128,128,-1,-1,-1,-1,-5.718956694,-16.32545189,-22.04440858,-4.12550142,-1,-1,-1,-1
1.71E+12,128,128,-1,-1,-1,-1,-5.718956771,-16.3254519,-22.04440867,-4.125501456,-1,-1,-1,-1
1.71E+12,128,128,-1,-1,-1,-1,-5.718956928,-16.32545194,-22.04440886,-4.125501511,-1,-1,-1,-1
1.71E+12,128,128,-1,-1,-1,-1,-5.718957169,-16.32545204,-22.04440921,-4.125501558,-1,-1,-1,-1
1.71E+12,128,128,-1,-1,-1,-1,-5.718957516,-16.32545225,-22.04440977,-4.125501559,-1,-1,-1,-1
1.71E+12,128,128,-1,-1,-1,-1,-5.718958028,-16.32545258,-22.04441061,-4.12550146,-1,-1,-1,-1
1.71E+12,128,128,-1,-1,-1,-1,-5.718958818,-16.32545307,-22.04441189,-4.125501221,-1,-1,-1,-1
1.71E+12,128,128,-1,-1,-1,-1,-5.718960031,-16.32545378,-22.04441381,-4.125500823,-1,-1,-1,-1
1.71E+12,128,128,-1,-1,-1,-1,-5.718961783,-16.32545479,-22.04441658,-4.125500236,-1,-1,-1,-1
1.71E+12,128,128,-1,-1,-1,-1,-5.718964142,-16.32545624,-22.04442039,-4.12549942,-1,-1,-1,-1
1.71E+12,128,128,-1,-1,-1,-1,-5.718967157,-16.32545829,-22.04442544,-4.125498358,-1,-1,-1,-1
1.71E+12,128,128,-1,-1,-1,-1,-5.718970905,-16.32546107,-22.04443198,-4.125497027,-1,-1,-1,-1
1.71E+12,128,128,-1,-1,-1,-1,-5.718975561,-16.32546473,-22.04444029,-4.125495389,-1,-1,-1,-1
1.71E+12,128,128,-1,-1,-1,-1,-5.718981392,-16.32546937,-22.04445077,-4.125493417,-1,-1,-1,-1
1.71E+12,128,128,-1,-1,-1,-1,-5.718988706,-16.3254751,-22.0444638,-4.125491091,-1,-1,-1,-1
1.71E+12,128,128,-1,-1,-1,-1,-5.718997825,-16.32548202,-22.04447984,-4.125488388,-1,-1,-1,-1
1.71E+12,128,128,-1,-1,-1,-1,-5.719009054,-16.3254903,-22.04449935,-4.125485269,-1,-1,-1,-1
1.71E+12,128,128,-1,-1,-1,-1,-5.71902271,-16.32550014,-22.04452285,-4.125481697,-1,-1,-1,-1
1.71E+12,128,128,-1,-1,-1,-1,-5.719039153,-16.32551179,-22.04455095,-4.125477617,-1,-1,-1,-1
1.71E+12,128,128,-1,-1,-1,-1,-5.719058784,-16.32552551,-22.04458429,-4.125472947,-1,-1,-1,-1
1.71E+12,128,128,-1,-1,-1,-1,-5.719082037,-16.32554157,-22.04462361,-4.12546759,-1,-1,-1,-1
1.71E+12,128,128,-1,-1,-1,-1,-5.71910938,-16.32556029,-22.04466967,-4.125461461,-1,-1,-1,-1
1.71E+12,128,128,-1,-1,-1,-1,-5.719141285,-16.32558195,-22.04472324,-4.125454497,-1,-1,-1,-1
1.71E+12,128,128,-1,-1,-1,-1,-5.719178233,-16.32560686,-22.0447851,-4.125446625,-1,-1,-1,-1
1.71E+12,128,128,-1,-1,-1,-1,-5.719220728,-16.32563536,-22.04485608,-4.12543777,-1,-1,-1,-1
1.71E+12,128,128,-1,-1,-1,-1,-5.719269293,-16.32566778,-22.04493707,-4.125427873,-1,-1,-1,-1
1.71E+12,128,128,-1,-1,-1,-1,-5.719324466,-16.32570453,-22.04502899,-4.125416864,-1,-1,-1,-1
1.71E+12,128,128,-1,-1,-1,-1,-5.719386777,-16.32574599,-22.04513277,-4.125404657,-1,-1,-1,-1
1.71E+12,128,128,-1,-1,-1,-1,-5.719456704,-16.32579258,-22.04524928,-4.125391191,-1,-1,-1,-1
1.71E+12,128,128,-1,-1,-1,-1,-5.719534727,-16.32584467,-22.0453794,-4.125376397,-1,-1,-1,-1
1.71E+12,128,128,-1,-1,-1,-1,-5.719621375,-16.32590269,-22.04552406,-4.125360185,-1,-1,-1,-1
1.71E+12,128,128,-1,-1,-1,-1,-5.719717252,-16.32596707,-22.04568433,-4.125342456,-1,-1,-1,-1
1.71E+12,128,128,-1,-1,-0.999375753,-1,-5.71982307,-16.32603833,-22.0458614,-4.125323105,-1,-1,-0.999902668,-1
1.71E+12,128,128,-0.999375753,-1,-0.997497175,-1,-5.719939622,-16.32611697,-22.04605659,-4.125302061,-0.999902668,-1,-0.999512429,-1
1.71E+12,128,128,-0.997497175,-0.999375753,-0.99435157,-1,-5.720067722,-16.32620352,-22.04627124,-4.125279248,-0.999512429,-0.999902668,-0.99863173,-1
1.71E+12,128,128,-0.99435157,-0.997497175,-0.989921002,-1,-5.720208191,-16.32629849,-22.04650668,-4.125254557,-0.99863173,-0.999512429,-0.99706022,-1
1.71E+12,128,128,-0.989921002,-0.99435157,-0.984182342,-1,-5.720361842,-16.32640246,-22.0467643,-4.125227891,-0.99706022,-0.99863173,-0.994593942,-1
1.71E+12,128,128,-0.984182342,-0.989921002,-0.977107347,-1,-5.720529479,-16.32651601,-22.04704549,-4.125199173,-0.994593942,-0.99706022,-0.991024536,-1
1.71E+12,128,128,-0.977107347,-0.984182342,-0.968662771,-1,-5.72071192,-16.32663972,-22.04735164,-4.125168309,-0.991024536,-0.994593942,-0.986138458,-1
1.71E+12,128,128,-0.968662771,-0.977107347,-0.958810507,-1,-5.720910004,-16.32677414,-22.04768415,-4.125135196,-0.986138458,-0.991024536,-0.979716221,-1
1.71E+12,128,128,-0.958810507,-0.968662771,-0.947507764,-1,-5.721124582,-16.32691984,-22.04804442,-4.125099759,-0.979716221,-0.986138458,-0.97153167,-1
1.71E+12,128,128,-0.947507764,-0.958810507,-0.934707269,-0.999373799,-5.72135652,-16.32707736,-22.04843388,-4.12506192,-0.97153167,-0.979716221,-0.961351274,-0.999902969
1.71E+12,128,128,-0.934707269,-0.947507764,-0.9203575,-0.997489341,-5.721606695,-16.32724731,-22.048854,-4.125021593,-0.961351274,-0.97153167,-0.948933473,-0.999513937
1.71E+12,128,128,-0.9203575,-0.934707269,-0.904402955,-0.994333892,-5.721876002,-16.32743026,-22.04930626,-4.12497868,-0.948933473,-0.961351274,-0.93402805,-0.998635962
1.71E+12,128,128,-0.904402955,-0.9203575,-0.886784434,-0.989889457,-5.722165342,-16.32762683,-22.04979217,-4.124933057,-0.93402805,-0.948933473,-0.91637556,-0.997069312
1.71E+12,128,128,-0.886784434,-0.904402955,-0.867439365,-0.984132836,-5.722475627,-16.32783759,-22.05031322,-4.124884622,-0.91637556,-0.93402805,-0.895706801,-0.994610662
1.71E+12,128,128,-0.867439365,-0.886784434,-0.846302143,-0.977035698,-5.72280777,-16.32806316,-22.05087093,-4.124833291,-0.895706801,-0.91637556,-0.871742342,-0.991052296
1.71E+12,128,128,-0.846302143,-0.867439365,-0.823304493,-0.968564692,-5.723162686,-16.32830415,-22.05146683,-4.124778951,-0.871742342,-0.895706801,-0.844192105,-0.98618133
1.71E+12,128,128,-0.823304493,-0.846302143,-0.798375866,-0.958681593,-5.723541294,-16.32856118,-22.05210248,-4.124721493,-0.844192105,-0.871742342,-0.812755015,-0.979778957
1.71E+12,128,128,-0.798375866,-0.823304493,-0.771443844,-0.947343475,-5.723944516,-16.32883489,-22.0527794,-4.124660821,-0.812755015,-0.844192105,-0.777118704,-0.971619719
1.71E+12,128,128,-0.771443844,-0.798375866,-0.742434568,-0.934502917,-5.724373281,-16.32912591,-22.05349919,-4.124596821,-0.777118704,-0.812755015,-0.736959287,-0.96147081
1.71E+12,128,128,-0.742434568,-0.771443844,-0.711273184,-0.920108237,-5.724828497,-16.3294349,-22.05426339,-4.124529392,-0.736959287,-0.777118704,-0.691941209,-0.949091416
1.71E+12,128,128,-0.711273184,-0.742434568,-0.677884304,-0.904103758,-5.725310996,-16.32976248,-22.05507348,-4.124458437,-0.691941209,-0.736959287,-0.641717161,-0.934232094
1.71E+12,128,128,-0.677884304,-0.711273184,-0.64219248,-0.886430095,-5.725821504,-16.33010928,-22.05593079,-4.124383841,-0.641717161,-0.691941209,-0.58592807,-0.916634201
1.71E+12,128,128,-0.64219248,-0.677884304,-0.604122687,-0.867024481,-5.726360697,-16.3304759,-22.05683659,-4.124305483,-0.58592807,-0.641717161,-0.524203163,-0.896029368
1.71E+12,128,128,-0.604122687,-0.64219248,-0.563600817,-0.845821103,-5.726929276,-16.33086291,-22.05779219,-4.124223255,-0.524203163,-0.58592807,-0.456160116,-0.872139028
1.71E+12,128,128,-0.563600817,-0.604122687,-0.520554177,-0.822751476,-5.727528027,-16.33127091,-22.05879894,-4.124137048,-0.456160116,-0.524203163,-0.381405268,-0.844674001
1.71E+12,128,128,-0.520554177,-0.563600817,-0.474911997,-0.797744829,-5.72815782,-16.33170046,-22.05985828,-4.124046761,-0.381405268,-0.456160116,-0.299533924,-0.813334142
1.71E+12,128,128,-0.474911997,-0.520554177,-0.426605937,-0.770728515,-5.728819567,-16.33215211,-22.06097168,-4.123952318,-0.299533924,-0.381405268,-0.210130733,-0.77780805
1.71E+12,128,128,-0.426605937,-0.474911997,-0.375570586,-0.741628446,-5.729514181,-16.3326264,-22.06214058,-4.123853656,-0.210130733,-0.299533924,-0.112770148,-0.737772841
1.71E+12,128,128,-0.375570586,-0.426605937,-0.321743978,-0.710369534,-5.730242525,-16.33312387,-22.0633664,-4.123750707,-0.112770148,-0.210130733,-0.007016956,-0.692893999
1.71E+12,128,128,-0.321743978,-0.375570586,-0.26506808,-0.676876155,-5.731005408,-16.33364505,-22.06465046,-4.123643395,-0.007016956,-0.112770148,0.107573101,-0.642825288
1.71E+12,128,128,-0.26506808,-0.321743978,-0.205489292,-0.641072624,-5.731803555,-16.33419044,-22.06599399,-4.123531656,0.107573101,-0.007016956,0.23145264,-0.587208746
1.71E+12,128,128,-0.205489292,-0.26506808,-0.142958928,-0.602883681,-5.732637556,-16.33476052,-22.06739808,-4.123415436,0.23145264,0.107573101,0.365081868,-0.525674747
1.71E+12,128,128,-0.142958928,-0.205489292,-0.077433685,-0.562234986,-5.733507878,-16.33535574,-22.06886362,-4.123294682,0.365081868,0.23145264,0.508927745,-0.457842149
1.71E+12,128,128,-0.077433685,-0.142958928,-0.008876106,-0.51905362,-5.734414935,-16.33597654,-22.07039148,-4.123169357,0.508927745,0.365081868,0.663463071,-0.383318509
1.71E+12,128,128,-0.008876106,-0.077433685,0.062744985,-0.473268591,-5.735359172,-16.33662333,-22.0719825,-4.123039425,0.663463071,0.508927745,0.829165505,-0.301700383
1.71E+12,128,128,0.062744985,-0.008876106,0.137454051,-0.424811343,-5.736341098,-16.33729647,-22.07363757,-4.122904849,0.829165505,0.663463071,1.006516524,-0.212573707
1.71E+12,128,128,0.137454051,0.062744985,0.215268446,-0.373616264,-5.737361258,-16.33799631,-22.07535757,-4.122765627,1.006516524,0.829165505,1.196000307,-0.115514246
1.71E+12,128,128,0.215268446,0.137454051,0.296198029,-0.319621191,-5.738420202,-16.33872315,-22.07714335,-4.122621784,1.196000307,1.006516524,1.398102572,-0.010088136
1.71E+12,128,128,0.296198029,0.215268446,0.380244807,-0.26276791,-5.739518426,-16.33947722,-22.07899565,-4.12247335,1.398102572,1.196000307,1.613309351,0.104147507
1.71E+12,128,128,0.380244807,0.296198029,0.467402604,-0.203002654,-5.740656341,-16.34025874,-22.08091508,-4.122320352,1.613309351,1.398102572,1.842105711,0.227643901
1.71E+12,128,128,0.467402604,0.380244807,0.557656759,-0.140276584,-5.741834272,-16.34106784,-22.08290212,-4.122162788,1.842105711,1.613309351,2.084974434,0.360859829
1.71E+12,128,128,0.557656759,0.467402604,0.650983847,-0.074546262,-5.743052436,-16.34190461,-22.08495704,-4.122000669,2.084974434,1.842105711,2.342394649,0.504260808
1.71E+12,128,128,0.650983847,0.557656759,0.747351437,-0.005774113,-5.744310932,-16.34276907,-22.08708001,-4.121834011,2.342394649,2.084974434,2.61484043,0.658318174
1.71E+12,128,128,0.747351437,0.650983847,0.846717882,0.066071135,-5.745609742,-16.34366127,-22.08927101,-4.121662837,2.61484043,2.342394649,2.902779355,0.82350811
1.71E+12,128,128,0.846717882,0.747351437,0.949032135,0.141014024,-5.746948755,-16.34458117,-22.09152992,-4.12148719,2.902779355,2.61484043,3.206671046,1.000310603
1.71E+12,128,128,0.949032135,0.846717882,1.054233611,0.21907196,-5.748327787,-16.34552874,-22.09385652,-4.12130713,3.206671046,2.902779355,3.526965675,1.189208334
1.71E+12,128,128,1.054233611,0.949032135,1.162252071,0.300254834,-5.749746592,-16.34650388,-22.09625047,-4.121122716,3.526965675,3.206671046,3.864102464,1.390685521
1.71E+12,128,128,1.162252071,1.054233611,1.273007558,0.384564659,-5.751204865,-16.34750645,-22.09871131,-4.120934007,3.864102464,3.526965675,4.21850817,1.605226691
1.71E+12,128,128,1.273007558,1.162252071,1.386410355,0.471995241,-5.752702216,-16.34853626,-22.10123847,-4.120741063,4.21850817,3.864102464,4.590595558,1.83331541
1.71E+12,128,128,1.386410355,1.273007558,1.502360989,0.562531871,-5.754238178,-16.34959309,-22.10383127,-4.120543934,4.590595558,4.21850817,4.980761886,2.075432968
1.71E+12,128,128,1.502360989,1.386410355,1.620750271,0.656151051,-5.755812245,-16.35067667,-22.10648891,-4.120342682,4.980761886,4.590595558,5.389387385,2.332057013
1.71E+12,128,128,1.620750271,1.502360989,1.741459377,0.752820251,-5.757423913,-16.35178665,-22.10921056,-4.120137391,5.389387385,4.980761886,5.816833762,2.603660151
1.71E+12,128,128,1.741459377,1.620750271,1.864359962,0.85249769,-5.759072667,-16.35292263,-22.1119953,-4.119928139,5.816833762,5.389387385,6.263442709,2.890708515
1.71E+12,128,128,1.864359962,1.741459377,1.989314314,0.955132163,-5.760757928,-16.35408417,-22.11484209,-4.119715035,6.263442709,5.816833762,6.72953445,3.193660304
1.71E+12,128,128,1.989314314,1.864359962,2.116175551,1.060662895,-5.76247902,-16.35527075,-22.11774977,-4.119498187,6.72953445,6.263442709,7.215406303,3.512964299
1.71E+12,128,128,2.116175551,1.989314314,2.24478785,1.169019429,-5.764235175,-16.35648181,-22.12071698,-4.11927771,7.215406303,6.72953445,7.721331293,3.849058364
1.71E+12,128,128,2.24478785,2.116175551,2.374986713,1.280121556,-5.766025524,-16.3577167,-22.12374223,-4.119053764,7.721331293,7.215406303,8.247556797,4.202367934
1.71E+12,128,128,2.374986713,2.24478785,2.506599277,1.393879277,-5.767849051,-16.35897476,-22.12682381,-4.118826499,8.247556797,7.721331293,8.794303237,4.573304499
1.71E+12,128,128,2.506599277,2.374986713,2.639444649,1.51019281,-5.769704586,-16.36025525,-22.12995983,-4.118596054,8.794303237,8.247556797,9.361762832,4.962264088
1.71E+12,128,128,2.639444649,2.506599277,2.773334283,1.628952624,-5.771590848,-16.36155737,-22.13314822,-4.118362597,9.361762832,8.794303237,9.950098403,5.369625757
1.71E+12,128,128,2.773334283,2.639444649,2.908072389,1.750039522,-5.773506464,-16.36288026,-22.13638673,-4.118126317,9.950098403,9.361762832,10.55944224,5.795750092
1.71E+12,128,128,2.908072389,2.773334283,3.043456375,1.873324758,-5.77544996,-16.364223,-22.13967296,-4.117887402,10.55944224,9.950098403,11.18989506,6.24097773
1.71E+12,128,128,3.043456375,2.908072389,3.179277317,1.998670189,-5.777419774,-16.36558457,-22.14300435,-4.117646044,11.18989506,10.55944224,11.84152497,6.705627903
1.71E+12,128,128,3.179277317,3.043456375,3.315320462,2.125928473,-5.779414302,-16.36696392,-22.14637822,-4.117402453,11.84152497,11.18989506,12.51436664,7.189997011
1.71E+12,128,128,3.315320462,3.179277317,3.451365754,2.254943299,-5.781431928,-16.36835989,-22.14979182,-4.117156824,12.51436664,11.84152497,13.20842039,7.694357235
1.71E+12,128,128,3.451365754,3.315320462,3.587188395,2.385549655,-5.783471073,-16.36977125,-22.15324233,-4.116909359,13.20842039,12.51436664,13.92365151,8.218955185
1.71E+12,128,128,3.587188395,3.451365754,3.722559418,2.517574137,-5.785530268,-16.37119672,-22.15672699,-4.116660292,13.92365151,13.20842039,14.65998958,8.764010602
1.71E+12,128,128,3.722559418,3.587188395,3.857246291,2.650835284,-5.787608112,-16.37263494,-22.16024305,-4.116409852,14.65998958,13.92365151,15.41732793,9.329715111
1.71E+12,128,128,3.857246291,3.722559418,3.991013538,2.785143962,-5.789703195,-16.37408452,-22.16378772,-4.116158298,15.41732793,14.65998958,16.19552318,9.916231028
1.71E+12,128,128,3.991013538,3.857246291,4.123623378,2.920303768,-5.791814083,-16.37554406,-22.16735814,-4.115905922,16.19552318,15.41732793,16.99439485,10.52369024
1.71E+12,128,128,4.123623378,3.991013538,4.254836381,3.056111475,-5.793939307,-16.3770121,-22.1709514,-4.115653022,16.99439485,16.19552318,17.81372517,11.15219313
1.71E+12,128,128,4.254836381,4.123623378,4.384412132,3.192357506,-5.796077325,-16.37848716,-22.17456449,-4.115399905,17.81372517,16.99439485,18.65325884,11.80180764
1.71E+12,128,128,4.384412132,4.254836381,4.512109914,3.328826435,-5.798226471,-16.37996776,-22.17819424,-4.115146871,18.65325884,17.81372517,19.51270306,12.47256828
1.71E+12,128,128,4.512109914,4.384412132,4.637689392,3.465297518,-5.800384965,-16.38145237,-22.18183734,-4.1148942,19.51270306,18.65325884,20.39172754,13.16447541
1.71E+12,128,128,4.637689392,4.512109914,4.760911308,3.601545253,-5.802550952,-16.38293943,-22.18549039,-4.114642153,20.39172754,19.51270306,21.28996469,13.8774944
1.71E+12,128,128,4.760911308,4.637689392,4.881538176,3.737339957,-5.804722551,-16.38442738,-22.18914993,-4.114390987,21.28996469,20.39172754,22.2070099,14.61155506
1.71E+12,128,128,4.881538176,4.760911308,4.999334978,3.872448369,-5.806897869,-16.3859146,-22.19281247,-4.114140943,22.2070099,21.28996469,23.1424219,15.36655106
1.71E+12,128,128,4.999334978,4.881538176,5.114069863,4.006634277,-5.809074992,-16.38739946,-22.19647445,-4.113892268,23.1424219,22.2070099,24.09572328,16.14233943
1.71E+12,128,128,5.114069863,4.999334978,5.225514835,4.139659156,-5.811251995,-16.3888803,-22.20013229,-4.113645228,24.09572328,23.1424219,25.06640108,16.93874029
1.71E+12,128,128,5.225514835,5.114069863,5.333446437,4.271282825,-5.81342692,-16.39035547,-22.20378239,-4.113400094,25.06640108,24.09572328,26.0539075,17.75553651
1.71E+12,128,128,5.333446437,5.225514835,5.437646428,4.401264119,-5.81559779,-16.39182334,-22.20742113,-4.113157162,26.0539075,25.06640108,27.0576607,18.59247361
1.71E+12,128,128,5.437646428,5.333446437,5.537902445,4.529361566,-5.81776264,-16.39328223,-22.21104487,-4.112916721,27.0576607,26.0539075,28.07704576,19.44925966
1.71E+12,128,128,5.537902445,5.437646428,5.634008651,4.65533408,-5.819919509,-16.39473053,-22.21465003,-4.112679066,28.07704576,27.0576607,29.11141562,20.32556542
1.71E+12,128,128,5.634008651,5.537902445,5.725766366,4.778941653,-5.822066423,-16.39616666,-22.21823308,-4.112444511,29.11141562,28.07704576,30.16009228,21.22102443
1.71E+12,128,128,5.725766366,5.634008651,5.812984683,4.899946055,-5.82420144,-16.3975891,-22.22179054,-4.112213354,30.16009228,29.11141562,31.22236796,22.13523333
1.71E+12,128,128,5.812984683,5.725766366,5.895481054,5.018111534,-5.826322732,-16.39899631,-22.22531904,-4.111985875,31.22236796,30.16009228,32.29750641,23.06775221
1.71E+12,128,128,5.895481054,5.812984683,5.973081862,5.133205514,-5.828428553,-16.40038675,-22.2288153,-4.111762375,32.29750641,31.22236796,33.38474432,24.01810514
1.71E+12,128,128,5.973081862,5.895481054,6.04562296,5.244999283,-5.830517192,-16.40175889,-22.23227609,-4.111543164,33.38474432,32.29750641,34.48329279,24.98578075
1.71E+12,128,128,6.04562296,5.973081862,6.112950186,5.353268686,-5.832586969,-16.40311128,-22.23569825,-4.111328525,34.48329279,33.38474432,35.59233888,25.97023292
1.71E+12,128,128,6.112950186,6.04562296,6.174919845,5.4577948,-5.834636201,-16.4044425,-22.2390787,-4.11111874,35.59233888,34.48329279,36.71104722,26.97088164
1.71E+12,128,128,6.174919845,6.112950186,6.231399163,5.558364595,-5.836663217,-16.40575119,-22.24241441,-4.110914096,36.71104722,35.59233888,37.83856179,27.98711385
1.71E+12,128,128,6.231399163,6.174919845,6.282266708,5.654771591,-5.83866642,-16.40703608,-22.2457025,-4.110714906,37.83856179,36.71104722,38.97400758,29.01828453
1.71E+12,128,128,6.282266708,6.231399163,6.327412767,5.746816488,-5.84064432,-16.40829594,-22.24894026,-4.110521456,38.97400758,37.83856179,40.11649251,30.06371775
1.71E+12,128,128,6.327412767,6.282266708,6.366739702,5.834307778,-5.842595524,-16.40952955,-22.25212508,-4.11033404,40.11649251,38.97400758,41.26510928,31.12270794
1.71E+12,128,128,6.366739702,6.327412767,6.400162253,5.917062344,-5.84451877,-16.41073574,-22.25525451,-4.110152961,41.26510928,40.11649251,42.41893726,32.19452111
1.71E+12,128,128,6.400162253,6.366739702,6.427607815,5.994906025,-5.846412882,-16.41191339,-22.25832627,-4.109978499,42.41893726,41.26510928,43.57704453,33.27839633
1.71E+12,128,128,6.427607815,6.400162253,6.449016664,6.06767416,-5.848276719,-16.41306144,-22.26133816,-4.109810933,43.57704453,42.41893726,44.73848986,34.37354711
1.71E+12,128,128,6.449016664,6.427607815,6.464342148,6.135212104,-5.850109198,-16.41417888,-22.26428808,-4.109650553,44.73848986,43.57704453,45.90232473,35.47916305
1.71E+12,128,128,6.464342148,6.449016664,6.47355084,6.197375714,-5.851909306,-16.41526477,-22.26717408,-4.109497648,45.90232473,44.73848986,47.0675954,36.59441136
1.71E+12,128,128,6.47355084,6.464342148,6.47662264,6.2540318,-5.853676104,-16.41631822,-22.26999433,-4.109352475,47.0675954,45.90232473,48.23334503,37.71843865
1.71E+12,128,128,6.47662264,6.47355084,6.47355084,6.305058549,-5.85540871,-16.41733841,-22.27274712,-4.109215273,48.23334503,47.0675954,49.39861571,38.85037265
1.71E+12,128,128,6.47355084,6.47662264,6.464342148,6.350345905,-5.857106316,-16.41832458,-22.2754309,-4.109086302,49.39861571,48.23334503,50.56245058,39.98932401
1.71E+12,128,128,6.464342148,6.47355084,6.449016664,6.389795924,-5.85876819,-16.41927609,-22.27804428,-4.108965825,50.56245058,49.39861571,51.72389591,41.13438823
1.71E+12,128,128,6.449016664,6.464342148,6.427607815,6.423323081,-5.860393684,-16.42019237,-22.28058606,-4.108854102,51.72389591,50.56245058,52.88200318,42.28464756
1.71E+12,128,128,6.427607815,6.449016664,6.400162253,6.450854541,-5.861982273,-16.42107296,-22.28305524,-4.108751384,52.88200318,51.72389591,54.03583116,43.43917294
1.71E+12,128,128,6.400162253,6.427607815,6.366739702,6.472330394,-5.863533548,-16.42191749,-22.28545103,-4.108657903,54.03583116,52.88200318,55.18444792,44.59702606
1.71E+12,128,128,6.366739702,6.400162253,6.327412767,6.487703844,-5.865047182,-16.42272565,-22.28777283,-4.108573887,55.18444792,54.03583116,56.32693286,45.75726132
1.71E+12,128,128,6.327412767,6.366739702,6.282266708,6.496941357,-5.866522933,-16.42349725,-22.29002019,-4.108499562,56.32693286,55.18444792,57.46237865,46.91892795
1.71E+12,128,128,6.282266708,6.327412767,6.231399163,6.500022771,-5.867960637,-16.42423218,-22.29219282,-4.108435155,57.46237865,56.32693286,58.58989322,48.08107205
1.71E+12,128,128,6.231399163,6.282266708,6.174919845,6.496941357,-5.869360216,-16.42493039,-22.29429061,-4.108380855,58.58989322,57.46237865,59.70860156,49.24273868
1.71E+12,128,128,6.174919845,6.231399163,6.112950186,6.487703844,-5.87072168,-16.42559198,-22.29631366,-4.108336826,59.70860156,58.58989322,60.81764765,50.40297394
1.71E+12,128,128,6.112950186,6.174919845,6.04562296,6.472330394,-5.872045105,-16.42621714,-22.29826225,-4.108303243,60.81764765,59.70860156,61.91619612,51.56082706
1.71E+12,128,128,6.04562296,6.112950186,5.973081862,6.450854541,-5.873330629,-16.42680616,-22.30013679,-4.108280289,61.91619612,60.81764765,63.00343403,52.71535244
1.71E+12,128,128,5.973081862,6.04562296,5.895481054,6.423323081,-5.874578471,-16.42735942,-22.30193789,-4.108268162,63.00343403,61.91619612,64.07857248,53.86561177
1.71E+12,128,128,5.895481054,5.973081862,5.812984683,6.389795924,-5.875788955,-16.42787733,-22.30366629,-4.108267038,64.07857248,63.00343403,65.14084816,55.01067599
1.71E+12,128,128,5.812984683,5.895481054,5.725766366,6.350345905,-5.876962506,-16.42836039,-22.3053229,-4.108277056,65.14084816,64.07857248,66.18952482,56.14962735
1.71E+12,128,128,5.725766366,5.812984683,5.634008651,6.305058549,-5.87809963,-16.42880915,-22.30690878,-4.108298377,66.18952482,65.14084816,67.22389468,57.28156135
1.71E+12,128,128,5.634008651,5.725766366,5.537902445,6.2540318,-5.879200906,-16.42922424,-22.30842514,-4.108331158,67.22389468,66.18952482,68.24327974,58.40558864
1.71E+12,128,128,5.537902445,5.634008651,5.437646428,6.197375714,-5.880266963,-16.42960642,-22.30987338,-4.108375538,68.24327974,67.22389468,69.24703294,59.52083695
1.71E+12,128,128,5.437646428,5.537902445,5.333446437,6.135212104,-5.88129851,-16.42995658,-22.31125509,-4.108431644,69.24703294,68.24327974,70.23453936,60.62645289
1.71E+12,128,128,5.333446437,5.437646428,5.225514835,6.06767416,-5.882296336,-16.43027568,-22.31257202,-4.108499586,70.23453936,69.24703294,71.20521716,61.72160367
1.71E+12,128,128,5.225514835,5.333446437,5.114069863,5.994906025,-5.883261278,-16.43056483,-22.3138261,-4.108579467,71.20521716,70.23453936,72.15851854,62.80547889
1.71E+12,128,128,5.114069863,5.225514835,4.999334978,5.917062344,-5.884194187,-16.43082522,-22.3150194,-4.108671357,72.15851854,71.20521716,73.09393054,63.87729206
1.71E+12,128,128,4.999334978,5.114069863,4.881538176,5.834307778,-5.885095944,-16.43105815,-22.31615409,-4.108775318,73.09393054,72.15851854,74.01097575,64.93628225
1.71E+12,128,128,4.881538176,4.999334978,4.760911308,5.746816488,-5.885967483,-16.43126494,-22.31723242,-4.10889143,74.01097575,73.09393054,74.9092129,65.98171547
1.71E+12,128,128,4.760911308,4.881538176,4.637689392,5.654771591,-5.886809799,-16.43144694,-22.31825674,-4.109019765,74.9092129,74.01097575,75.78823738,67.01288615
1.71E+12,128,128,4.637689392,4.760911308,4.512109914,5.558364595,-5.887623976,-16.43160557,-22.31922954,-4.109160382,75.78823738,74.9092129,76.6476816,68.02911836
1.71E+12,128,128,4.512109914,4.637689392,4.384412132,5.4577948,-5.88841119,-16.4317423,-22.32015349,-4.109313311,76.6476816,75.78823738,77.48721527,69.02976708
1.71E+12,128,128,4.384412132,4.512109914,4.254836381,5.353268686,-5.889172708,-16.43185874,-22.32103145,-4.109478568,77.48721527,76.6476816,78.30654558,70.01421925
1.71E+12,128,128,4.254836381,4.384412132,4.123623378,5.244999283,-5.889909884,-16.43195655,-22.32186643,-4.109656152,78.30654558,77.48721527,79.10541726,70.98189486
1.71E+12,128,128,4.123623378,4.254836381,3.991013538,5.133205514,-5.890624114,-16.43203743,-22.32266154,-4.109846053,79.10541726,78.30654558,79.88361251,71.93224779
1.71E+12,128,128,3.991013538,4.123623378,3.857246291,5.018111534,-5.891316812,-16.43210314,-22.32341995,-4.110048275,79.88361251,79.10541726,80.64095086,72.86476667
1.71E+12,128,128,3.857246291,3.991013538,3.722559418,4.899946055,-5.891989389,-16.43215552,-22.32414491,-4.110262803,80.64095086,79.88361251,81.37728893,73.77897557
1.71E+12,128,128,3.722559418,3.857246291,3.587188395,4.778941653,-5.892643234,-16.43219645,-22.32483968,-4.110489605,81.37728893,80.64095086,82.09252005,74.67443458
1.71E+12,128,128,3.587188395,3.722559418,3.451365754,4.65533408,-5.893279714,-16.43222783,-22.32550754,-4.110728664,82.09252005,81.37728893,82.7865738,75.55074034
1.71E+12,128,128,3.451365754,3.587188395,3.315320462,4.529361566,-5.893900178,-16.43225159,-22.32615176,-4.110979959,82.7865738,82.09252005,83.45941547,76.40752639
1.71E+12,128,128,3.315320462,3.451365754,3.179277317,4.401264119,-5.894505987,-16.43226962,-22.32677561,-4.11124344,83.45941547,82.7865738,84.11104538,77.24446349
1.71E+12,128,128,3.179277317,3.315320462,3.043456375,4.271282825,-5.895098488,-16.43228387,-22.32738236,-4.111519045,84.11104538,83.45941547,84.7414982,78.06125971
1.71E+12,128,128,3.043456375,3.179277317,2.908072389,4.139659156,-5.895679001,-16.43229628,-22.32797528,-4.111806712,84.7414982,84.11104538,85.35084204,78.85766057
1.71E+12,128,128,2.908072389,3.043456375,2.773334283,4.006634277,-5.896248832,-16.43230879,-22.32855762,-4.112106356,85.35084204,84.7414982,85.93917761,79.63344894
1.71E+12,128,128,2.773334283,2.908072389,2.639444649,3.872448369,-5.89680925,-16.43232333,-22.32913258,-4.112417868,85.93917761,85.35084204,86.5066372,80.38844494
1.71E+12,128,128,2.639444649,2.773334283,2.506599277,3.737339957,-5.897361444,-16.43234183,-22.32970328,-4.112741139,86.5066372,85.93917761,87.05338364,81.1225056
1.71E+12,128,128,2.506599277,2.639444649,2.374986713,3.601545253,-5.897906523,-16.43236621,-22.33027273,-4.113076047,87.05338364,86.5066372,87.57960915,81.83552459
1.71E+12,128,128,2.374986713,2.506599277,2.24478785,3.465297518,-5.898445575,-16.43239827,-22.33084385,-4.113422452,87.57960915,87.05338364,88.08553414,82.52743172
1.71E+12,128,128,2.24478785,2.374986713,2.116175551,3.328826435,-5.898979697,-16.43243968,-22.33141938,-4.113780218,88.08553414,87.57960915,88.57140599,83.19819236
1.71E+12,128,128,2.116175551,2.24478785,1.989314314,3.192357506,-5.89950994,-16.432492,-22.33200194,-4.114149204,88.57140599,88.08553414,89.03749773,83.84780687
1.71E+12,128,128,1.989314314,2.116175551,1.864359962,3.056111475,-5.90003725,-16.43255674,-22.33259399,-4.114529262,89.03749773,88.57140599,89.48410668,84.47630976
1.71E+12,128,128,1.864359962,1.989314314,1.741459377,2.920303768,-5.90056244,-16.43263534,-22.33319778,-4.114920218,89.48410668,89.03749773,89.91155305,85.08376897
1.71E+12,128,128,1.741459377,1.864359962,1.620750271,2.785143962,-5.901086246,-16.43272908,-22.33381533,-4.115321853,89.91155305,89.48410668,90.32017855,85.67028489
1.71E+12,128,128,1.620750271,1.741459377,1.502360989,2.650835284,-5.901609357,-16.4328391,-22.33444845,-4.11573394,90.32017855,89.91155305,90.71034488,86.2359894
1.71E+12,128,128,1.502360989,1.620750271,1.386410355,2.517574137,-5.902132378,-16.43296631,-22.33509869,-4.116156289,90.71034488,90.32017855,91.08243227,86.78104482
1.71E+12,128,128,1.386410355,1.502360989,1.273007558,2.385549655,-5.902655856,-16.43311138,-22.33576723,-4.116588692,91.08243227,90.71034488,91.43683797,87.30564277
1.71E+12,128,128,1.273007558,1.386410355,1.162252071,2.254943299,-5.90318035,-16.43327458,-22.33645493,-4.11703092,91.43683797,91.08243227,91.77397476,87.81000299
1.71E+12,128,128,1.162252071,1.273007558,1.054233611,2.125928473,-5.903706488,-16.43345583,-22.33716232,-4.117482766,91.77397476,91.43683797,92.09426939,88.2943721
1.71E+12,128,128,1.054233611,1.162252071,0.949032135,1.998670189,-5.904235004,-16.43365472,-22.33788972,-4.117944049,92.09426939,91.77397476,92.39816108,88.75902227
1.71E+12,128,128,0.949032135,1.054233611,0.846717882,1.873324758,-5.904766707,-16.43387073,-22.33863743,-4.118414611,92.39816108,92.09426939,92.68610001,89.20424991
1.71E+12,128,128,0.846717882,0.949032135,0.747351437,1.750039522,-5.905302482,-16.43410363,-22.33940611,-4.1188943,92.68610001,92.39816108,92.95854579,89.63037424
1.71E+12,128,128,0.747351437,0.846717882,0.650983847,1.628952624,-5.905843401,-16.43435347,-22.34019688,-4.119382962,92.95854579,92.68610001,93.21596601,90.03773591
1.71E+12,128,128,0.650983847,0.747351437,0.557656759,1.51019281,-5.906390862,-16.43462017,-22.34101104,-4.119880461,93.21596601,92.95854579,93.45883473,90.4266955
1.71E+12,128,128,0.557656759,0.650983847,0.467402604,1.393879277,-5.906946438,-16.43490351,-22.34184994,-4.120386692,93.45883473,93.21596601,93.68763109,90.79763207
1.71E+12,128,128,0.467402604,0.557656759,0.380244807,1.280121556,-5.907511646,-16.43520328,-22.34271493,-4.120901579,93.68763109,93.45883473,93.90283787,91.15094164
1.71E+12,128,128,0.380244807,0.467402604,0.296198029,1.169019429,-5.90808785,-16.43551939,-22.34360724,-4.12142509,93.90283787,93.68763109,94.10494013,91.4870357
1.71E+12,128,128,0.296198029,0.380244807,0.215268446,1.060662895,-5.908676218,-16.43585173,-22.34452795,-4.121957245,94.10494013,93.90283787,94.29442392,91.8063397
1.71E+12,128,128,0.215268446,0.296198029,0.137454051,0.955132163,-5.909277718,-16.43620021,-22.34547793,-4.122498083,94.29442392,94.10494013,94.47177493,92.10929149
1.71E+12,128,128,0.137454051,0.215268446,0.062744985,0.85249769,-5.909893176,-16.43656477,-22.34645795,-4.123047642,94.47177493,94.29442392,94.63747737,92.39633985
1.71E+12,128,128,0.062744985,0.137454051,-0.008876106,0.752820251,-5.910523284,-16.43694544,-22.34746873,-4.12360597,94.63747737,94.47177493,94.79201269,92.66794299
1.71E+12,128,128,-0.008876106,0.062744985,-0.077433685,0.656151051,-5.911168621,-16.43734221,-22.34851083,-4.124173099,94.79201269,94.63747737,94.93585857,92.92456703
1.71E+12,128,128,-0.077433685,-0.008876106,-0.142958928,0.562531871,-5.911829602,-16.43775496,-22.34958456,-4.124749046,94.93585857,94.79201269,95.0694878,93.16668459
1.71E+12,128,128,-0.142958928,-0.077433685,-0.205489292,0.471995241,-5.912506471,-16.43818346,-22.35068993,-4.125333824,95.0694878,94.93585857,95.19336734,93.39477331
1.71E+12,128,128,-0.205489292,-0.142958928,-0.26506808,0.384564659,-5.91319936,-16.43862724,-22.3518266,-4.125927422,95.19336734,95.0694878,95.30795739,93.60931448
1.71E+12,128,128,-0.26506808,-0.205489292,-0.321743978,0.300254834,-5.91390835,-16.4390856,-22.35299394,-4.126529821,95.30795739,95.19336734,95.41371059,93.81079167
1.71E+12,128,128,-0.321743978,-0.26506808,-0.375570586,0.21907196,-5.914633523,-16.43955769,-22.35419122,-4.127140997,95.41371059,95.30795739,95.51107117,93.9996894
1.71E+12,128,128,-0.375570586,-0.321743978,-0.426605937,0.141014024,-5.915374937,-16.4400426,-22.35541753,-4.127760926,95.51107117,95.41371059,95.60047436,94.17649189
1.71E+12,128,128,-0.426605937,-0.375570586,-0.474911997,0.066071135,-5.91613261,-16.44053931,-22.35667192,-4.128389625,95.60047436,95.51107117,95.68234571,94.34168183
1.71E+12,128,128,-0.474911997,-0.426605937,-0.520554177,-0.005774113,-5.916906546,-16.4410468,-22.35795335,-4.129027101,95.68234571,95.60047436,95.75710056,94.49573919
1.71E+12,128,128,-0.520554177,-0.474911997,-0.563600817,-0.074546262,-5.917696713,-16.44156395,-22.35926067,-4.129673331,95.75710056,95.68234571,95.8251436,94.63914017
1.71E+12,128,128,-0.563600817,-0.520554177,-0.604122687,-0.140276584,-5.918503022,-16.44208956,-22.36059258,-4.130328323,95.8251436,95.75710056,95.88686851,94.7723561
1.71E+12,128,128,-0.604122687,-0.563600817,-0.64219248,-0.203002654,-5.919325378,-16.44262238,-22.36194775,-4.130992083,95.88686851,95.8251436,95.9426576,94.89585249
1.71E+12,128,128,-0.64219248,-0.604122687,-0.677884304,-0.26276791,-5.920163666,-16.44316116,-22.36332483,-4.131664577,95.9426576,95.88686851,95.99288165,95.01008814
1.71E+12,128,128,-0.677884304,-0.64219248,-0.711273184,-0.319621191,-5.921017712,-16.44370472,-22.36472243,-4.132345766,95.99288165,95.9426576,96.03789973,95.11551425
1.71E+12,128,128,-0.711273184,-0.677884304,-0.742434568,-0.373616264,-5.921887248,-16.44425188,-22.36613913,-4.133035629,96.03789973,95.99288165,96.07805914,95.21257371
1.71E+12,128,128,-0.742434568,-0.711273184,-0.771443844,-0.424811343,-5.92277191,-16.44480156,-22.36757347,-4.133734159,96.07805914,96.03789973,96.11369545,95.30170038
1.71E+12,128,128,-0.771443844,-0.742434568,-0.798375866,-0.473268591,-5.923671241,-16.44535264,-22.36902388,-4.134441367,96.11369545,96.07805914,96.14513254,95.38331851
1.71E+12,128,128,-0.798375866,-0.771443844,-0.823304493,-0.51905362,-5.924584739,-16.445904,-22.37048874,-4.135157297,96.14513254,96.11369545,96.17268278,95.45784215
1.71E+12,128,128,-0.823304493,-0.798375866,-0.846302143,-0.562234986,-5.925511937,-16.4464545,-22.37196644,-4.135882009,96.17268278,96.14513254,96.19664724,95.52567475
1.71E+12,128,128,-0.846302143,-0.823304493,-0.867439365,-0.602883681,-5.926452373,-16.44700298,-22.37345536,-4.136615587,96.19664724,96.17268278,96.217316,95.58720875
1.71E+12,128,128,-0.867439365,-0.846302143,-0.886784434,-0.641072624,-5.927405545,-16.44754833,-22.37495388,-4.137358131,96.217316,96.19664724,96.23496849,95.64282529
1.71E+12,128,128,-0.886784434,-0.867439365,-0.904402955,-0.676876155,-5.928370924,-16.44808954,-22.37646047,-4.138109747,96.23496849,96.217316,96.24987391,95.692894
1.71E+12,128,128,-0.904402955,-0.886784434,-0.9203575,-0.710369534,-5.929347937,-16.44862568,-22.37797361,-4.138870552,96.24987391,96.23496849,96.26229171,95.73777284
1.71E+12,128,128,-0.9203575,-0.904402955,-0.934707269,-0.741628446,-5.930335961,-16.44915589,-22.37949185,-4.139640684,96.26229171,96.24987391,96.27247211,95.77780805
1.71E+12,128,128,-0.934707269,-0.9203575,-0.947507764,-0.770728515,-5.931334349,-16.44967947,-22.38101381,-4.140420256,96.27247211,96.26229171,96.28065666,95.81333414
1.71E+12,128,128,-0.947507764,-0.934707269,-0.958810507,-0.797744829,-5.932342435,-16.45019578,-22.38253821,-4.141209372,96.28065666,96.27247211,96.2870789,95.844674
1.71E+12,128,128,-0.958810507,-0.947507764,-0.968662771,-0.822751476,-5.933359493,-16.4507043,-22.38406379,-4.14200815,96.2870789,96.28065666,96.29196497,95.87213903
1.71E+12,128,128,-0.968662771,-0.958810507,-0.977107347,-0.845821103,-5.934384745,-16.45120461,-22.38558935,-4.142816701,96.29196497,96.2870789,96.29553438,95.89602937
1.71E+12,128,128,-0.977107347,-0.968662771,-0.984182342,-0.867024481,-5.935417394,-16.4516964,-22.3871138,-4.143635154,96.29553438,96.29196497,96.29800066,95.9166342
1.71E+12,128,128,-0.984182342,-0.977107347,-0.989921002,-0.886430095,-5.936456657,-16.45217952,-22.38863618,-4.144463642,96.29800066,96.29553438,96.29957217,95.93423209
1.71E+12,128,128,-0.989921002,-0.984182342,-0.99435157,-0.904103758,-5.937501793,-16.45265396,-22.39015575,-4.145302276,96.29957217,96.29800066,96.30045287,95.94909142
1.71E+12,128,128,-0.99435157,-0.989921002,-0.997497175,-0.920108237,-5.93855204,-16.45311987,-22.39167191,-4.146151189,96.30045287,96.29957217,96.30084311,95.96147081
1.71E+12,128,128,-0.997497175,-0.99435157,-0.999375753,-0.934502917,-5.939606557,-16.45357764,-22.39318419,-4.147010503,96.30084311,96.30045287,96.30094044,95.97161972
1.71E+12,128,128,-0.999375753,-0.997497175,-1,-0.947343475,-5.940664452,-16.45402778,-22.39469223,-4.147880329,96.30094044,96.30084311,96.30094044,95.97977896
1.71E+12,128,128,-1,-0.999375753,-1,-0.958681593,-5.94172477,-16.45447095,-22.39619572,-4.148760794,96.30094044,96.30094044,96.30094044,95.98618133
1.71E+12,128,128,-1,-1,-1,-0.968564692,-5.942786507,-16.45490795,-22.39769446,-4.149651994,96.30094044,96.30094044,96.30094044,95.9910523
1.71E+12,128,128,-1,-1,-1,-0.977035698,-5.943848637,-16.45533981,-22.39918845,-4.150554026,96.30094044,96.30094044,96.30094044,95.99461066
1.71E+12,128,128,-1,-1,-1,-0.984132836,-5.944910151,-16.45576771,-22.40067786,-4.151467049,96.30094044,96.30094044,96.30094044,95.99706931
1.71E+12,128,128,-1,-1,-1,-0.989889457,-5.945970067,-16.45619298,-22.40216305,-4.152391188,96.30094044,96.30094044,96.30094044,95.99863596
1.71E+12,128,128,-1,-1,-1,-0.994333892,-5.947027363,-16.45661716,-22.40364453,-4.153326513,96.30094044,96.30094044,96.30094044,95.99951394
1.71E+12,128,128,-1,-1,-1,-0.997489341,-5.948080967,-16.45704203,-22.40512299,-4.1542731,96.30094044,96.30094044,96.30094044,95.99990297
1.71E+12,128,128,-1,-1,-1,-0.999373799,-5.949129774,-16.4574696,-22.40659937,-4.155231021,96.30094044,96.30094044,96.30094044,96
1.71E+12,128,128,-1,-1,-1,-1,-5.950172633,-16.45790216,-22.40807479,-4.156200296,96.30094044,96.30094044,96.30094044,96
1.71E+12,128,128,-1,-1,-1,-1,-5.951208338,-16.45834225,-22.40955058,-4.157180939,96.30094044,96.30094044,96.30094044,96
1.71E+12,128,128,-1,-1,-1,-1,-5.952235642,-16.4587926,-22.41102824,-4.158172983,96.30094044,96.30094044,96.30094044,96
1.71E+12,128,128,-1,-1,-1,-1,-5.953253251,-16.45925614,-22.41250939,-4.159176472,96.30094044,96.30094044,96.30094044,96
1.71E+12,128,128,-1,-1,-1,-1,-5.954259813,-16.45973597,-22.41399578,-4.160191456,96.30094044,96.30094044,96.30094044,96
1.71E+12,128,128,-1,-1,-1,-1,-5.955253925,-16.46023534,-22.41548926,-4.161217945,96.30094044,96.30094044,96.30094044,96
1.71E+12,128,128,-1,-1,-1,-1,-5.956234144,-16.46075775,-22.41699189,-4.162255915,96.30094044,96.30094044,96.30094044,96
1.71E+12,128,128,-1,-1,-1,-1,-5.957198978,-16.46130695,-22.41850593,-4.163305353,96.30094044,96.30094044,96.30094044,96
1.71E+12,128,128,-1,-1,-1,-1,-5.958146879,-16.46188691,-22.42003379,-4.164366282,96.30094044,96.30094044,96.30094044,96
1.71E+12,128,128,-1,-1,-1,-1,-5.959076274,-16.46250175,-22.42157802,-4.165438691,96.30094044,96.30094044,96.30094044,96
1.71E+12,128,128,-1,-1,-1,-1,-5.959985591,-16.46315573,-22.42314132,-4.166522528,96.30094044,96.30094044,96.30094044,96
1.71E+12,128,128,-1,-1,-1,-1,-5.960873269,-16.46385327,-22.42472654,-4.167617739,96.30094044,96.30094044,96.30094044,96
1.71E+12,128,128,-1,-1,-1,-1,-5.961737823,-16.46459896,-22.42633678,-4.168724275,96.30094044,96.30094044,96.30094044,96
1.71E+12,128,128,-1,-1,-1,-1,-5.962577863,-16.46539754,-22.4279754,-4.169842076,96.30094044,96.30094044,96.30094044,96
1.71E+12,128,128,-1,-1,-1,-1,-5.963391997,-16.4662539,-22.4296459,-4.170971091,96.30094044,96.30094044,96.30094044,96
1.71E+12,128,128,-1,-1,-1,-1,-5.964178745,-16.46717309,-22.43135183,-4.172111239,96.30094044,96.30094044,96.30094044,96
1.71E+12,128,128,-1,-1,-1,-1,-5.964936504,-16.46816025,-22.43309675,-4.173262394,96.30094044,96.30094044,96.30094044,96
1.71E+12,128,128,-1,-1,-1,-1,-5.965663548,-16.4692206,-22.43488415,-4.174424441,96.30094044,96.30094044,96.30094044,96
1.71E+12,128,128,-1,-1,-1,-1,-5.96635805,-16.47035941,-22.43671746,-4.175597223,96.30094044,96.30094044,96.30094044,96
1.71E+12,128,128,-1,-1,-1,-1,-5.967018107,-16.47158201,-22.43860012,-4.17678057,96.30094044,96.30094044,96.30094044,96
1.71E+12,128,128,-1,-1,-1,-1,-5.967641796,-16.47289374,-22.44053554,-4.177974331,96.30094044,96.30094044,96.30094044,96
1.71E+12,128,128,-1,-1,-1,-1,-5.968227195,-16.47429995,-22.44252714,-4.17917837,96.30094044,96.30094044,96.30094044,96
1.71E+12,128,128,-1,-1,-1,-1,-5.968772407,-16.47580605,-22.44457845,-4.180392551,96.30094044,96.30094044,96.30094044,96
1.71E+12,128,128,-1,-1,-1,-1,-5.969275647,-16.47741745,-22.4466931,-4.181616729,96.30094044,96.30094044,96.30094044,96
1.71E+12,128,128,-1,-1,-1,-1,-5.96973525,-16.47913957,-22.44887482,-4.182850761,96.30094044,96.30094044,96.30094044,96
1.71E+12,128,128,-1,-1,-1,-1,-5.970149618,-16.48097781,-22.45112743,-4.184094493,96.30094044,96.30094044,96.30094044,96
1.71E+12,128,128,-1,-1,-1,-1,-5.970517108,-16.48293764,-22.45345475,-4.185347786,96.30094044,96.30094044,96.30094044,96
1.71E+12,128,128,-1,-1,-1,-1,-5.970835976,-16.48502452,-22.45586049,-4.186610489,96.30094044,96.30094044,96.30094044,96
1.71E+12,128,128,-1,-1,-1,-1,-5.971104421,-16.48724382,-22.45834824,-4.187882403,96.30094044,96.30094044,96.30094044,96
1.71E+12,128,128,-1,-1,-1,-1,-5.971320618,-16.48960086,-22.46092148,-4.189163315,96.30094044,96.30094044,96.30094044,96
1.71E+12,128,128,-1,-1,-1,-1,-5.971482795,-16.4921009,-22.4635837,-4.190453024,96.30094044,96.30094044,96.30094044,96
1.71E+12,128,128,-1,-1,-1,-1,-5.971589261,-16.49474917,-22.46633843,-4.191751335,96.30094044,96.30094044,96.30094044,96
1.71E+12,128,128,-1,-1,-1,-1,-5.971638406,-16.49755082,-22.46918923,-4.193058086,96.30094044,96.30094044,96.30094044,96
1.71E+12,128,128,-1,-1,-1,-1,-5.97162871,-16.5005109,-22.47213961,-4.194373132,96.30094044,96.30094044,96.30094044,96
1.71E+12,128,128,-1,-1,-1,-1,-5.97155874,-16.50363432,-22.47519306,-4.195696327,96.30094044,96.30094044,96.30094044,96
1.71E+12,128,128,-1,-1,-1,-1,-5.971427187,-16.50692586,-22.47835305,-4.197027504,96.30094044,96.30094044,96.30094044,96
1.71E+12,128,128,-1,-1,-1,-1,-5.971232895,-16.51039008,-22.48162297,-4.198366463,96.30094044,96.30094044,96.30094044,96
1.71E+12,128,128,-1,-1,-1,-1,-5.970974815,-16.51403134,-22.48500615,-4.199713026,96.30094044,96.30094044,96.30094044,96
1.71E+12,128,128,-1,-1,-1,-1,-5.97065194,-16.51785385,-22.48850579,-4.201067058,96.30094044,96.30094044,96.30094044,96
1.71E+12,128,128,-1,-1,-1,-1,-5.970263283,-16.52186161,-22.49212489,-4.202428434,96.30094044,96.30094044,96.30094044,96
1.71E+12,128,128,-1,-1,-1,-1,-5.969807918,-16.5260584,-22.49586632,-4.203797054,96.30094044,96.30094044,96.30094044,96
1.71E+12,128,128,-1,-1,-1,-1,-5.969284988,-16.5304478,-22.49973279,-4.205172857,96.30094044,96.30094044,96.30094044,96
1.71E+12,128,128,-1,-1,-1,-1,-5.968693683,-16.53503316,-22.50372684,-4.206555769,96.30094044,96.30094044,96.30094044,96
1.71E+12,128,128,-1,-1,-1,-1,-5.968033201,-16.53981756,-22.50785076,-4.2079457,96.30094044,96.30094044,96.30094044,96
1.71E+12,128,128,-1,-1,-1,-1,-5.967302764,-16.54480386,-22.51210663,-4.209342574,96.30094044,96.30094044,96.30094044,96
1.71E+12,128,128,-1,-1,-1,-1,-5.966501672,-16.54999467,-22.51649634,-4.210746318,96.30094044,96.30094044,96.30094044,96
1.71E+12,128,128,-1,-1,-1,-1,-5.965629321,-16.55539232,-22.52102164,-4.212156908,96.30094044,96.30094044,96.30094044,96
1.71E+12,128,128,-1,-1,-1,-1,-5.964685215,-16.56099888,-22.5256841,-4.213574357,96.30094044,96.30094044,96.30094044,96
1.71E+12,128,128,-1,-1,-1,-1,-5.963668981,-16.5668161,-22.53048508,-4.214998657,96.30094044,96.30094044,96.30094044,96
1.71E+12,128,128,-1,-1,-1,-1,-5.962580432,-16.57284541,-22.53542584,-4.216429852,96.30094044,96.30094044,96.30094044,96
1.71E+12,128,128,-1,-1,-1,-1,-5.961419571,-16.57908793,-22.5405075,-4.217868036,96.30094044,96.30094044,96.30094044,96
1.71E+12,128,128,-1,-1,-1,-1,-5.960186542,-16.58554443,-22.54573097,-4.219313299,96.30094044,96.30094044,96.30094044,96
1.71E+12,128,128,-1,-1,-1,-1,-5.95888161,-16.59221532,-22.55109693,-4.22076573,96.30094044,96.30094044,96.30094044,96
1.71E+12,128,128,-1,-1,-1,-1,-5.957505157,-16.59910076,-22.55660592,-4.222225441,96.30094044,96.30094044,96.30094044,96
1.71E+12,128,128,-1,-1,-1,-1,-5.956057676,-16.60620062,-22.56225829,-4.223692559,96.30094044,96.30094044,96.30094044,96
1.71E+12,128,128,-1,-1,-1,-1,-5.954539715,-16.61351444,-22.56805416,-4.225167261,96.30094044,96.30094044,96.30094044,96
1.71E+12,128,128,-1,-1,-1,-1,-5.952951845,-16.62104151,-22.57399336,-4.226649783,96.30094044,96.30094044,96.30094044,96
1.71E+12,128,128,-1,-1,-1,-1,-5.951294653,-16.6287808,-22.58007545,-4.228140392,96.30094044,96.30094044,96.30094044,96
1.71E+12,128,128,-1,-1,-1,-1,-5.949568679,-16.63673093,-22.58629961,-4.229639375,96.30094044,96.30094044,96.30094044,96
1.71E+12,128,128,-1,-1,-1,-1,-5.947774491,-16.64489019,-22.59266468,-4.231147048,96.30094044,96.30094044,96.30094044,96
1.71E+12,128,128,-1,-1,-1,-1,-5.945912786,-16.6532565,-22.59916929,-4.2326637,96.30094044,96.30094044,96.30094044,96
1.71E+12,128,128,-1,-1,-1,-1,-5.943984351,-16.66182746,-22.60581181,-4.234189609,96.30094044,96.30094044,96.30094044,96
1.71E+12,128,128,-1,-1,-1,-1,-5.941990002,-16.67060028,-22.61259028,-4.235725095,96.30094044,96.30094044,96.30094044,96
1.71E+12,128,128,-1,-1,-1,-1,-5.939930592,-16.6795718,-22.61950239,-4.23727052,96.30094044,96.30094044,96.30094044,96
1.71E+12,128,128,-1,-1,-1,-1,-5.93780712,-16.68873847,-22.62654559,-4.238826291,96.30094044,96.30094044,96.30094044,96
1.71E+12,128,128,-1,-1,-1,-1,-5.93562074,-16.69809635,-22.63371709,-4.240392894,96.30094044,96.30094044,96.30094044,96
1.71E+12,128,128,-1,-1,-1,-1,-5.933372743,-16.70764119,-22.64101394,-4.241970854,96.30094044,96.30094044,96.30094044,96
1.71E+12,128,128,-1,-1,-1,-1,-5.931064612,-16.71736841,-22.64843302,-4.243560705,96.30094044,96.30094044,96.30094044,96
1.71E+12,128,128,-1,-1,-1,-1,-5.928697979,-16.7272731,-22.65597108,-4.245163004,96.30094044,96.30094044,96.30094044,96
1.71E+12,128,128,-1,-1,-1,-1,-5.926274514,-16.73735009,-22.6636246,-4.24677833,96.30094044,96.30094044,96.30094044,96
1.71E+12,128,128,-1,-1,-1,-1,-5.923795954,-16.74759386,-22.67138982,-4.248407281,96.30094044,96.30094044,96.30094044,96
1.71E+12,128,128,-1,-1,-1,-1,-5.921264179,-16.75799855,-22.67926273,-4.250050465,96.30094044,96.30094044,96.30094044,96
1.71E+12,128,128,-1,-1,-1,-1,-5.918681198,-16.7685579,-22.6872391,-4.2517085,96.30094044,96.30094044,96.30094044,96
1.71E+12,128,128,-1,-1,-1,-1,-5.916049152,-16.77926529,-22.69531444,-4.253382052,96.30094044,96.30094044,96.30094044,96
1.71E+12,128,128,-1,-1,-1,-1,-5.913370281,-16.79011375,-22.70348403,-4.255071787,96.30094044,96.30094044,96.30094044,96
1.71E+12,128,128,-1,-1,-1,-1,-5.910646909,-16.801096,-22.71174291,-4.256778343,96.30094044,96.30094044,96.30094044,96
1.71E+12,128,128,-1,-1,-1,-1,-5.907881356,-16.81220446,-22.72008582,-4.258502398,96.30094044,96.30094044,96.30094044,96
1.71E+12,128,128,-1,-1,-1,-1,-5.905075843,-16.82343129,-22.72850713,-4.260244677,96.30094044,96.30094044,96.30094044,96
1.71E+12,128,128,-1,-1,-1,-1,-5.902232547,-16.8347684,-22.73700095,-4.26200591,96.30094044,96.30094044,96.30094044,96
1.71E+12,128,128,-1,-1,-1,-1,-5.899353671,-16.84620746,-22.74556114,-4.263786821,96.30094044,96.30094044,96.30094044,96
1.71E+12,128,128,-1,-1,-1,-1,-5.89644147,-16.85773987,-22.75418134,-4.265588147,96.30094044,96.30094044,96.30094044,96
1.71E+12,128,128,-1,-1,-1,-1,-5.893498276,-16.86935675,-22.76285503,-4.267410637,96.30094044,96.30094044,96.30094044,96
1.71E+12,128,128,-1,-1,-1,-1,-5.890526482,-16.88104899,-22.77157547,-4.26925503,96.30094044,96.30094044,96.30094044,96
1.71E+12,128,128,-1,-1,-1,-1,-5.887528469,-16.89280725,-22.78033572,-4.271122064,96.30094044,96.30094044,96.30094044,96
1.71E+12,128,128,-1,-1,-1,-1,-5.884506566,-16.90462196,-22.78912853,-4.273012492,96.30094044,96.30094044,96.30094044,96
1.71E+12,128,128,-1,-1,-1,-1,-5.881463031,-16.91648337,-22.7979464,-4.274927052,96.30094044,96.30094044,96.30094044,96
1.71E+12,128,128,-1,-1,-1,-1,-5.878400029,-16.92838152,-22.80678155,-4.276866483,96.30094044,96.30094044,96.30094044,96
1.71E+12,128,128,-1,-1,-1,-1,-5.875319748,-16.94030624,-22.81562599,-4.278831506,96.30094044,96.30094044,96.30094044,96
1.71E+12,128,128,-1,-1,-1,-1,-5.872224508,-16.95224714,-22.82447165,-4.28082284,96.30094044,96.30094044,96.30094044,96
1.71E+12,128,128,-1,-1,-1,-1,-5.869116768,-16.96419368,-22.83331045,-4.282841201,96.30094044,96.30094044,96.30094044,96
1.71E+12,128,128,-1,-1,-1,-1,-5.865999065,-16.97613515,-22.84213421,-4.284887285,96.30094044,96.30094044,96.30094044,96
1.71E+12,128,128,-1,-1,-1,-1,-5.862873878,-16.98806074,-22.85093462,-4.286961824,96.30094044,96.30094044,96.30094044,96
1.71E+12,128,128,-1,-1,-1,-1,-5.85974364,-16.99995957,-22.85970321,-4.289065555,96.30094044,96.30094044,96.30094044,96
1.71E+12,128,128,-1,-1,-1,-1,-5.856610752,-17.01182065,-22.86843141,-4.291199152,96.30094044,96.30094044,96.30094044,96
1.71E+12,128,128,-1,-1,-1,-1,-5.853477596,-17.02363288,-22.87711048,-4.293363273,96.30094044,96.30094044,96.30094044,96
1.71E+12,128,128,-1,-1,-1,-1,-5.850346535,-17.03538504,-22.88573158,-4.295558577,96.30094044,96.30094044,96.30094044,96
1.71E+12,128,128,-1,-1,-1,-1,-5.847219852,-17.0470658,-22.89428565,-4.29778571,96.30094044,96.30094044,96.30094044,96
1.71E+12,128,128,-1,-1,-1,-1,-5.844099756,-17.05866378,-22.90276354,-4.300045295,96.30094044,96.30094044,96.30094044,96
1.71E+12,128,128,-1,-1,-1,-1,-5.840988459,-17.07016756,-22.91115602,-4.30233794,96.30094044,96.30094044,96.30094044,96
1.71E+12,128,128,-1,-1,-1,-1,-5.837888195,-17.08156571,-22.9194539,-4.304664205,96.30094044,96.30094044,96.30094044,96
1.71E+12,128,128,-1,-1,-1,-1,-5.834801251,-17.09284679,-22.92764804,-4.307024599,96.30094044,96.30094044,96.30094044,96
1.71E+12,128,128,-1,-1,-1,-1,-5.831729955,-17.10399937,-22.93572933,-4.309419637,96.30094044,96.30094044,96.30094044,96
1.71E+12,128,128,-1,-1,-0.999381614,-1,-5.828676645,-17.11501196,-22.94368861,-4.31184983,96.30094044,96.30094044,96.30094135,96
1.71E+12,128,128,-1,-0.999381614,-0.997520675,-1,-5.82564365,-17.12587312,-22.95151677,-4.314315659,96.30094044,96.30094135,96.30094502,96
1.71E+12,128,128,-1,-0.997520675,-0.994404605,-1,-5.822633251,-17.13657142,-22.95920467,-4.316817542,96.30094044,96.30094502,96.3009533,96
1.71E+12,128,128,-1,-0.994404605,-0.990015637,-1,-5.81964764,-17.14709552,-22.96674316,-4.319355817,96.30094044,96.3009533,96.30096806,96
1.71E+12,128,128,-1,-0.990015637,-0.984330859,-1,-5.816688896,-17.15743419,-22.97412309,-4.321930786,96.30094044,96.30096806,96.30099123,96
1.71E+12,128,128,-1,-0.984330859,-0.977322293,-1,-5.813758956,-17.16757635,-22.98133531,-4.324542737,96.30094044,96.30099123,96.30102477,96
1.71E+12,128,128,-1,-0.977322293,-0.968957006,-1,-5.810859616,-17.177511,-22.98837062,-4.327191888,96.30094044,96.30102477,96.30107068,96
1.71E+12,128,128,-1,-0.968957006,-0.959197248,-1,-5.807992592,-17.18722727,-22.99521986,-4.329878416,96.30094044,96.30107068,96.30113103,96
1.71E+12,128,128,-1,-0.959197248,-0.94800063,-1,-5.805159547,-17.19671441,-23.00187396,-4.332602473,96.30094044,96.30113103,96.30120793,96
1.71E+12,128,128,-0.999381614,-0.94800063,-0.935320323,-0.99937966,-5.802362121,-17.20596181,-23.00832393,-4.335364148,96.30094135,96.30120793,96.30130359,96.00000091
1.71E+12,128,128,-0.997520675,-0.935320323,-0.921105289,-0.997512841,-5.799601981,-17.214959,-23.01456098,-4.338163501,96.30094502,96.30130359,96.30142027,96.00000455
1.71E+12,128,128,-0.994404605,-0.921105289,-0.905300546,-0.994386926,-5.796880831,-17.22369565,-23.02057649,-4.341000533,96.3009533,96.30142027,96.30156032,96.00001278
1.71E+12,128,128,-0.990015637,-0.905300546,-0.887847451,-0.989984092,-5.794200406,-17.23216155,-23.02636196,-4.343875202,96.30096806,96.30156032,96.30172618,96.00002745
1.71E+12,128,128,-0.984330859,-0.887847451,-0.868684019,-0.984281353,-5.791562451,-17.24034666,-23.03190911,-4.346787443,96.30099123,96.30172618,96.30192039,96.00005048
1.71E+12,128,128,-0.977322293,-0.868684019,-0.847745261,-0.977250645,-5.788968642,-17.2482412,-23.03720985,-4.34973713,96.30102477,96.30192039,96.30214556,96.00008381
1.71E+12,128,128,-0.968957006,-0.847745261,-0.824963543,-0.968858927,-5.786420534,-17.25583566,-23.0422562,-4.352724068,96.30107068,96.30214556,96.30240443,96.00012943
1.71E+12,128,128,-0.959197248,-0.824963543,-0.80026898,-0.959068334,-5.78391954,-17.26312077,-23.04704031,-4.355748005,96.30113103,96.30240443,96.30269981,96.00018939
1.71E+12,128,128,-0.94800063,-0.80026898,-0.773589831,-0.947836342,-5.781466925,-17.27008748,-23.0515544,-4.35880865,96.30120793,96.30269981,96.30303465,96.00026581
1.71E+12,128,128,-0.935320323,-0.773589831,-0.744852932,-0.935115972,-5.779063847,-17.27672696,-23.05579081,-4.361905653,96.30130359,96.30303465,96.303412,96.00036087
1.71E+12,128,128,-0.921105289,-0.744852932,-0.713984132,-0.920856026,-5.776711379,-17.28303067,-23.05974205,-4.365038622,96.30142027,96.303412,96.30383499,96.00047682
1.71E+12,128,128,-0.905300546,-0.713984132,-0.680908751,-0.905001349,-5.774410467,-17.28899036,-23.06340082,-4.368207108,96.30156032,96.30383499,96.3043069,96.00061599
1.71E+12,128,128,-0.887847451,-0.680908751,-0.645552049,-0.887493112,-5.772161915,-17.29459807,-23.06675999,-4.37141059,96.30172618,96.3043069,96.3048311,96.00078082
1.71E+12,128,128,-0.868684019,-0.645552049,-0.607839706,-0.868269135,-5.76996645,-17.29984613,-23.06981258,-4.374648529,96.30192039,96.3048311,96.30541107,96.00097381
1.71E+12,128,128,-0.847745261,-0.607839706,-0.567698308,-0.847264221,-5.767824839,-17.30472717,-23.07255201,-4.377920325,96.30214556,96.30541107,96.30605041,96.00119757
1.71E+12,128,128,-0.824963543,-0.567698308,-0.525055846,-0.824410527,-5.765738043,-17.30923415,-23.07497219,-4.381225289,96.30240443,96.30605041,96.30675282,96.00145481
1.71E+12,128,128,-0.80026898,-0.525055846,-0.479842216,-0.799637942,-5.763707196,-17.31336038,-23.07706758,-4.384562696,96.30269981,96.30675282,96.30752209,96.00174834
1.71E+12,128,128,-0.773589831,-0.479842216,-0.431989716,-0.772874502,-5.761733486,-17.31709957,-23.07883306,-4.387931806,96.30303465,96.30752209,96.30836213,96.00208108
1.71E+12,128,128,-0.744852932,-0.431989716,-0.381433553,-0.74404681,-5.759818168,-17.32044577,-23.08026394,-4.391331845,96.303412,96.30836213,96.30927694,96.00245606
1.71E+12,128,128,-0.713984132,-0.381433553,-0.32811234,-0.713080482,-5.757962511,-17.32339335,-23.08135586,-4.394761961,96.30383499,96.30927694,96.31027061,96.0028764
1.71E+12,128,128,-0.680908751,-0.32811234,-0.27196859,-0.679900602,-5.756167707,-17.32593704,-23.08210475,-4.398221309,96.3043069,96.31027061,96.31134731,96.00334535
1.71E+12,128,128,-0.645552049,-0.27196859,-0.212949207,-0.644432193,-5.754434897,-17.32807193,-23.08250683,-4.401709039,96.3048311,96.31134731,96.31251129,96.00386627
1.71E+12,128,128,-0.607839706,-0.212949207,-0.15100596,-0.6066007,-5.752765182,-17.32979349,-23.08255867,-4.405224215,96.30541107,96.31251129,96.31376689,96.00444261
1.71E+12,128,128,-0.567698308,-0.15100596,-0.086095955,-0.566332477,-5.751159587,-17.33109759,-23.08225718,-4.408765884,96.30605041,96.31376689,96.31511848,96.00507794
1.71E+12,128,128,-0.525055846,-0.086095955,-0.018182084,-0.52355529,-5.749619011,-17.33198061,-23.08159962,-4.412333097,96.30675282,96.31511848,96.31657051,96.00577594
1.71E+12,128,128,-0.479842216,-0.018182084,0.052766534,-0.47819881,-5.74814426,-17.33243947,-23.08058373,-4.415924844,96.30752209,96.31657051,96.31812746,96.00654038
1.71E+12,128,128,-0.431989716,0.052766534,0.126774133,-0.430195123,-5.746736162,-17.33247157,-23.07920773,-4.419540064,96.30836213,96.31812746,96.31979387,96.00737516
1.71E+12,128,128,-0.381433553,0.126774133,0.203857903,-0.379479231,-5.745395643,-17.33207472,-23.07747037,-4.423177648,96.30927694,96.31979387,96.32157428,96.00828423
1.71E+12,128,128,-0.32811234,0.203857903,0.284027612,-0.325989553,-5.744123679,-17.33124721,-23.07537089,-4.426836463,96.31027061,96.32157428,96.32347325,96.00927167
1.71E+12,128,128,-0.27196859,0.284027612,0.367285248,-0.26966842,-5.742921203,-17.32998784,-23.07290904,-4.430515397,96.31134731,96.32347325,96.32549536,96.01034162
1.71E+12,128,128,-0.212949207,0.367285248,0.453624693,-0.210462569,-5.741789093,-17.32829594,-23.07008503,-4.434213299,96.31251129,96.32549536,96.32764515,96.01149831
1.71E+12,128,128,-0.15100596,0.453624693,0.543031423,-0.148323616,-5.7407282,-17.32617144,-23.06689964,-4.437928954,96.31376689,96.32764515,96.32992717,96.01274603
1.71E+12,128,128,-0.086095955,0.543031423,0.635482233,-0.083208531,-5.739739313,-17.32361492,-23.06335423,-4.441661125,96.31511848,96.32992717,96.33234592,96.01408914
1.71E+12,128,128,-0.018182084,0.635482233,0.730944998,-0.015080091,-5.738823067,-17.32062771,-23.05945078,-4.445408583,96.31657051,96.33234592,96.33490584,96.01553207
1.71E+12,128,128,0.052766534,0.730944998,0.829378459,0.056092684,-5.737979854,-17.31721187,-23.05519173,-4.449170035,96.31812746,96.33490584,96.33761135,96.01707927
1.71E+12,128,128,0.126774133,0.829378459,0.930732051,0.130334106,-5.737209765,-17.31337014,-23.05057991,-4.452944124,96.31979387,96.33761135,96.34046674,96.01873523
1.71E+12,128,128,0.203857903,0.930732051,1.034945757,0.207661418,-5.736512651,-17.30910567,-23.04561833,-4.456729473,96.32157428,96.34046674,96.34347626,96.02050447
1.71E+12,128,128,0.284027612,1.034945757,1.141949998,0.288084418,-5.735888202,-17.30442166,-23.04030987,-4.460524704,96.32347325,96.34347626,96.34664404,96.02239154
1.71E+12,128,128,0.367285248,1.141949998,1.251665566,0.371605101,-5.7353359,-17.29932138,-23.03465728,-4.464328439,96.32549536,96.34664404,96.34997407,96.02440097
1.71E+12,128,128,0.453624693,1.251665566,1.364003588,0.45821733,-5.734854972,-17.29380855,-23.02866352,-4.468139258,96.32764515,96.34997407,96.35347024,96.02653728
1.71E+12,128,128,0.543031423,1.364003588,1.478865524,0.547906535,-5.734444473,-17.28788731,-23.02233178,-4.471955703,96.32992717,96.35347024,96.35713628,96.02880499
1.71E+12,128,128,0.635482233,1.478865524,1.596143211,0.640649438,-5.734103447,-17.28156203,-23.01566548,-4.475776274,96.33234592,96.35713628,96.36097577,96.03120857
1.71E+12,128,128,0.730944998,1.596143211,1.715718941,0.736413811,-5.73383099,-17.27483732,-23.00866831,-4.479599444,96.33490584,96.36097577,96.3649921,96.03375245
1.71E+12,128,128,0.829378459,1.715718941,1.837465573,0.835158267,-5.733626221,-17.26771808,-23.0013443,-4.483423616,96.33761135,96.3649921,96.36918848,96.03644099
1.71E+12,128,128,0.930732051,1.837465573,1.961246689,0.936832079,-5.73348826,-17.2602095,-22.99369776,-4.487247193,96.34046674,96.36918848,96.37356792,96.03927849
1.71E+12,128,128,1.034945757,1.961246689,2.086916786,1.041375041,-5.733416219,-17.25231699,-22.98573321,-4.491068617,96.34347626,96.37356792,96.37813322,96.04226914
1.71E+12,128,128,1.141949998,2.086916786,2.214321502,1.148717355,-5.733409218,-17.24404617,-22.97745539,-4.494886343,96.34664404,96.37813322,96.38288695,96.04541705
1.71E+12,128,128,1.251665566,2.214321502,2.343297888,1.258779563,-5.733466294,-17.23540301,-22.9688693,-4.498698857,96.34997407,96.38288695,96.38783141,96.0487262
1.71E+12,128,128,1.364003588,2.343297888,2.473674699,1.37147251,-5.73358638,-17.22639384,-22.95998022,-4.502504651,96.35347024,96.38783141,96.3929687,96.05220045
1.71E+12,128,128,1.478865524,2.473674699,2.605272743,1.486697345,-5.733768366,-17.21702543,-22.95079379,-4.506302238,96.35713628,96.3929687,96.39830061,96.05584351
1.71E+12,128,128,1.596143211,2.605272743,2.737905244,1.604345565,-5.734011095,-17.207305,-22.94131609,-4.510090217,96.36097577,96.39830061,96.40382867,96.05965892
1.71E+12,128,128,1.715718941,2.737905244,2.871378252,1.724299087,-5.734313411,-17.19724021,-22.93155362,-4.513867266,96.3649921,96.40382867,96.40955412,96.06365007
1.71E+12,128,128,1.837465573,2.871378252,3.005491074,1.846430369,-5.734674163,-17.18683912,-22.92151328,-4.517632091,96.36918848,96.40955412,96.41547792,96.06782014
1.71E+12,128,128,1.961246689,3.005491074,3.14003675,1.970602564,-5.735092165,-17.17611006,-22.91120223,-4.521383459,96.37356792,96.41547792,96.4216007,96.07217213
1.71E+12,128,128,2.086916786,3.14003675,3.274802542,2.096669707,-5.735566132,-17.16506167,-22.9006278,-4.525120163,96.37813322,96.4216007,96.42792279,96.07670881
1.71E+12,128,128,2.214321502,3.274802542,3.409570463,2.224476952,-5.736094659,-17.15370278,-22.88979744,-4.528841032,96.38288695,96.42792279,96.43444419,96.08143273
1.71E+12,128,128,2.343297888,3.409570463,3.544117822,2.35386083,-5.736676303,-17.1420425,-22.8787188,-4.532544944,96.38783141,96.43444419,96.44116457,96.08634619
1.71E+12,128,128,2.473674699,3.544117822,3.678217803,2.484649559,-5.737309742,-17.13009019,-22.86739993,-4.536230797,96.3929687,96.44116457,96.44808328,96.09145127
1.71E+12,128,128,2.605272743,3.678217803,3.811640057,2.616663378,-5.737993791,-17.11785544,-22.85584923,-4.539897563,96.39830061,96.44808328,96.45519931,96.09674975
1.71E+12,128,128,2.737905244,3.811640057,3.944151321,2.749714924,-5.738727257,-17.10534796,-22.84407521,-4.543544322,96.40382867,96.45519931,96.46251131,96.10224315
1.71E+12,128,128,2.871378252,3.944151321,4.075516045,2.883609631,-5.739508852,-17.09257764,-22.83208649,-4.547170229,96.40955412,96.46251131,96.47001758,96.10793271
1.71E+12,128,128,3.005491074,4.075516045,4.205497047,3.018146174,-5.740337145,-17.07955452,-22.81989167,-4.550774499,96.41547792,96.47001758,96.4777161,96.11381936
1.71E+12,128,128,3.14003675,4.205497047,4.33385617,3.153116939,-5.741210537,-17.06628877,-22.80749931,-4.554356389,96.4216007,96.4777161,96.48560444,96.11990376
1.71E+12,128,128,3.274802542,4.33385617,4.460354957,3.288308515,-5.742127356,-17.05279069,-22.79491804,-4.557915161,96.42792279,96.48560444,96.49367986,96.12618621
1.71E+12,128,128,3.409570463,4.460354957,4.58475533,3.423502227,-5.743085866,-17.03907069,-22.78215656,-4.561450116,96.43444419,96.49367986,96.50193926,96.13266672
1.71E+12,128,128,3.544117822,4.58475533,4.706820276,3.558474679,-5.744084152,-17.02513933,-22.76922348,-4.564960595,96.44116457,96.50193926,96.51037919,96.13934497
1.71E+12,128,128,3.678217803,4.706820276,4.82631454,3.692998341,-5.745120111,-17.01100724,-22.75612735,-4.568445981,96.44808328,96.51037919,96.51899584,96.1462203
1.71E+12,128,128,3.811640057,4.82631454,4.94300531,3.826842135,-5.746191575,-16.99668508,-22.74287666,-4.571905729,96.45519931,96.51899584,96.52778507,96.15329171
1.71E+12,128,128,3.944151321,4.94300531,5.056662913,3.95977206,-5.747296375,-16.98218355,-22.72947993,-4.575339392,96.46251131,96.52778507,96.53674238,96.16055786
1.71E+12,128,128,4.075516045,5.056662913,5.167061492,4.091551823,-5.748432414,-16.96751333,-22.71594574,-4.57874657,96.47001758,96.53674238,96.54586297,96.16801708
1.71E+12,128,128,4.205497047,5.167061492,5.27397969,4.221943492,-5.749597685,-16.95268512,-22.7022828,-4.582126861,96.4777161,96.54586297,96.55514168,96.17566732
1.71E+12,128,128,4.33385617,5.27397969,5.377201314,4.350708157,-5.750790245,-16.9377096,-22.68849985,-4.585479952,96.48560444,96.55514168,96.56457304,96.18350621
1.71E+12,128,128,4.460354957,5.377201314,5.476515995,4.477606609,-5.752008119,-16.92259742,-22.67460554,-4.588805638,96.49367986,96.56457304,96.57415129,96.191531
1.71E+12,128,128,4.58475533,5.476515995,5.571719829,4.602400017,-5.753249291,-16.90735918,-22.66060847,-4.592103751,96.50193926,96.57415129,96.58387033,96.19973862
1.71E+12,128,128,4.706820276,5.571719829,5.662616002,4.72485062,-5.754511734,-16.89200542,-22.64651715,-4.595374203,96.51037919,96.58387033,96.5937238,96.20812563
1.71E+12,128,128,4.82631454,5.662616002,5.749015398,4.844722418,-5.755793404,-16.8765466,-22.63234001,-4.598616961,96.51899584,96.5937238,96.60370505,96.21668826
1.71E+12,128,128,4.94300531,5.749015398,5.830737185,4.961781866,-5.757092266,-16.86099311,-22.61808538,-4.601832075,96.52778507,96.60370505,96.61380716,96.22542238
1.71E+12,128,128,5.056662913,5.830737185,5.907609374,5.075798563,-5.758406303,-16.84535521,-22.60376151,-4.605019656,96.53674238,96.61380716,96.62402296,96.23432353
1.71E+12,128,128,5.167061492,5.907609374,5.979469361,5.18654594,-5.759733494,-16.82964301,-22.58937651,-4.608179854,96.54586297,96.62402296,96.63434503,96.24338693
1.71E+12,128,128,5.27397969,5.979469361,6.046164429,5.293801939,-5.761071737,-16.81386649,-22.57493822,-4.611312936,96.55514168,96.63434503,96.64476574,96.25260747
1.71E+12,128,128,5.377201314,6.046164429,6.107552235,5.397349685,-5.762418772,-16.79803542,-22.56045419,-4.614419246,96.56457304,96.64476574,96.65527724,96.2619797
1.71E+12,128,128,5.476515995,6.107552235,6.163501252,5.496978145,-5.763772216,-16.78215947,-22.54593169,-4.617499147,96.57415129,96.65527724,96.66587148,96.2714979
1.71E+12,128,128,5.571719829,6.163501252,6.213891185,5.59248277,-5.765129662,-16.76624811,-22.53137777,-4.620553034,96.58387033,96.66587148,96.67654024,96.281156
1.71E+12,128,128,5.662616002,6.213891185,6.258613353,5.683666124,-5.766488776,-16.75031058,-22.51679936,-4.623581352,96.5937238,96.67654024,96.68727514,96.2909477
1.71E+12,128,128,5.749015398,6.258613353,6.297571035,5.770338493,-5.767847322,-16.73435598,-22.50220331,-4.626584578,96.60370505,96.68727514,96.69806766,96.30086637
1.71E+12,128,128,5.830737185,6.297571035,6.330679772,5.852318475,-5.769203063,-16.71839324,-22.4875963,-4.629563263,96.61380716,96.69806766,96.70890915,96.31090514
1.71E+12,128,128,5.907609374,6.330679772,6.357867638,5.929433537,-5.770553775,-16.70243107,-22.47298485,-4.632518044,96.62402296,96.70890915,96.71979084,96.32105688
1.71E+12,128,128,5.979469361,6.357867638,6.379075472,6.00152056,-5.771897267,-16.68647795,-22.45837522,-4.635449604,96.63434503,96.71979084,96.7307039,96.33131424
1.71E+12,128,128,6.046164429,6.379075472,6.394257061,6.068426348,-5.773231423,-16.67054206,-22.44377349,-4.638358657,96.64476574,96.7307039,96.74163941,96.34166961
1.71E+12,128,128,6.107552235,6.394257061,6.40337929,6.130008105,-5.774554308,-16.65463134,-22.42918565,-4.641245975,96.65527724,96.74163941,96.75258841,96.35211521
1.71E+12,128,128,6.163501252,6.40337929,6.406422247,6.186133889,-5.775864121,-16.63875343,-22.41461755,-4.64411239,96.66587148,96.75258841,96.76354191,96.36264302
1.71E+12,128,128,6.213891185,6.406422247,6.40337929,6.236683026,-5.77715909,-16.62291573,-22.40007482,-4.646958747,96.67654024,96.76354191,96.77449091,96.3732449
1.71E+12,128,128,6.258613353,6.40337929,6.394257061,6.281546491,-5.77843744,-16.60712538,-22.38556282,-4.64978592,96.68727514,96.77449091,96.78542642,96.3839125
1.71E+12,128,128,6.297571035,6.394257061,6.379075472,6.320627257,-5.779697417,-16.5913893,-22.37108672,-4.652594818,96.69806766,96.78542642,96.79633947,96.39463735
1.71E+12,128,128,6.330679772,6.379075472,6.357867638,6.353840599,-5.78093742,-16.57571413,-22.35665155,-4.655386395,96.70890915,96.79633947,96.80722117,96.40541086
1.71E+12,128,128,6.357867638,6.357867638,6.330679772,6.381114364,-5.782156052,-16.56010619,-22.34226225,-4.658161661,96.71979084,96.80722117,96.81806265,96.41622433
1.71E+12,128,128,6.379075472,6.330679772,6.297571035,6.402389203,-5.783352123,-16.54457145,-22.32792357,-4.660921629,96.7307039,96.81806265,96.82885517,96.42706896
1.71E+12,128,128,6.394257061,6.297571035,6.258613353,6.417618757,-5.784524577,-16.52911557,-22.31364014,-4.663667283,96.74163941,96.82885517,96.83959007,96.43793591
1.71E+12,128,128,6.40337929,6.258613353,6.213891185,6.426769806,-5.785672263,-16.51374395,-22.29941622,-4.666399631,96.75258841,96.83959007,96.85025884,96.44881626
1.71E+12,128,128,6.406422247,6.213891185,6.163501252,6.429822378,-5.786793851,-16.49846181,-22.28525566,-4.669119724,96.76354191,96.85025884,96.86085308,96.45970109
1.71E+12,128,128,6.40337929,6.163501252,6.107552235,6.426769806,-5.787887997,-16.48327405,-22.27116205,-4.67182863,96.77449091,96.86085308,96.87136457,96.47058144
1.71E+12,128,128,6.394257061,6.107552235,6.046164429,6.417618757,-5.788953524,-16.46818532,-22.25713884,-4.674527397,96.78542642,96.87136457,96.88178528,96.48144839
1.71E+12,128,128,6.379075472,6.046164429,5.979469361,6.402389203,-5.789989542,-16.45319995,-22.24318949,-4.677217064,96.79633947,96.88178528,96.89210735,96.49229302
1.71E+12,128,128,6.357867638,5.979469361,5.907609374,6.381114364,-5.790995454,-16.43832199,-22.22931744,-4.679898681,96.80722117,96.89210735,96.90232315,96.50310649
1.71E+12,128,128,6.330679772,5.907609374,5.830737185,6.353840599,-5.791970927,-16.42355521,-22.21552613,-4.682573305,96.81806265,96.90232315,96.91242526,96.51388
1.71E+12,128,128,6.297571035,5.830737185,5.749015398,6.320627257,-5.792915842,-16.40890311,-22.20181895,-4.685242009,96.82885517,96.91242526,96.92240651,96.52460485
1.71E+12,128,128,6.258613353,5.749015398,5.662616002,6.281546491,-5.79383018,-16.39436896,-22.18819914,-4.68790583,96.83959007,96.92240651,96.93225998,96.53527245
1.71E+12,128,128,6.213891185,5.662616002,5.571719829,6.236683026,-5.794713982,-16.37995578,-22.17466977,-4.690565798,96.85025884,96.93225998,96.94197902,96.54587433
1.71E+12,128,128,6.163501252,5.571719829,5.476515995,6.186133889,-5.795567328,-16.36566638,-22.16123371,-4.693222929,96.86085308,96.94197902,96.95155727,96.55640214
1.71E+12,128,128,6.107552235,5.476515995,5.377201314,6.130008105,-5.796390328,-16.35150334,-22.14789367,-4.69587817,96.87136457,96.95155727,96.96098863,96.56684774
1.71E+12,128,128,6.046164429,5.377201314,5.27397969,6.068426348,-5.797183183,-16.33746904,-22.13465222,-4.698532407,96.88178528,96.96098863,96.97026734,96.57720311
1.71E+12,128,128,5.979469361,5.27397969,5.167061492,6.00152056,-5.797946209,-16.3235656,-22.12151181,-4.7011865,96.89210735,96.97026734,96.97938793,96.58746047
1.71E+12,128,128,5.907609374,5.167061492,5.056662913,5.929433537,-5.798679824,-16.30979494,-22.10847476,-4.703841273,96.90232315,96.97938793,96.98834525,96.59761221
1.71E+12,128,128,5.830737185,5.056662913,4.94300531,5.852318475,-5.799384536,-16.29615875,-22.09554328,-4.706497504,96.91242526,96.98834525,96.99713447,96.60765098
1.71E+12,128,128,5.749015398,4.94300531,4.82631454,5.770338493,-5.800060886,-16.28265849,-22.08271937,-4.709155925,96.92240651,96.99713447,97.00575112,96.61756965
1.71E+12,128,128,5.662616002,4.82631454,4.706820276,5.683666124,-5.800709471,-16.26929533,-22.0700048,-4.711817205,96.93225998,97.00575112,97.01419105,96.62736135
1.71E+12,128,128,5.571719829,4.706820276,4.58475533,5.59248277,-5.80133098,-16.25607023,-22.05740121,-4.714482001,96.94197902,97.01419105,97.02245045,96.63701945
1.71E+12,128,128,5.476515995,4.58475533,4.460354957,5.496978145,-5.801926178,-16.24298393,-22.04491011,-4.717150968,96.95155727,97.02245045,97.03052587,96.64653765
1.71E+12,128,128,5.377201314,4.460354957,4.33385617,5.397349685,-5.802495893,-16.23003699,-22.03253288,-4.719824687,96.96098863,97.03052587,97.03841422,96.65590988
1.71E+12,128,128,5.27397969,4.33385617,4.205497047,5.293801939,-5.803041007,-16.21722974,-22.02027075,-4.722503653,96.97026734,97.03841422,97.04611273,96.66513042
1.71E+12,128,128,5.167061492,4.205497047,4.075516045,5.18654594,-5.803562451,-16.20456232,-22.00812477,-4.725188326,96.97938793,97.04611273,97.05361901,96.67419382
1.71E+12,128,128,5.056662913,4.075516045,3.944151321,5.075798563,-5.804061193,-16.19203463,-21.99609582,-4.72787911,96.98834525,97.05361901,97.06093101,96.68309497
1.71E+12,128,128,4.94300531,3.944151321,3.811640057,4.961781866,-5.804538241,-16.17964637,-21.98418462,-4.730576315,96.99713447,97.06093101,97.06804703,96.69182909
1.71E+12,128,128,4.82631454,3.811640057,3.678217803,4.844722418,-5.804994647,-16.16739705,-21.97239169,-4.733280186,97.00575112,97.06804703,97.07496574,96.70039172
1.71E+12,128,128,4.706820276,3.678217803,3.544117822,4.72485062,-5.805431463,-16.15528595,-21.96071742,-4.735990937,97.01419105,97.07496574,97.08168612,96.70877873
1.71E+12,128,128,4.58475533,3.544117822,3.409570463,4.602400017,-5.805849715,-16.14331217,-21.94916188,-4.738708729,97.02245045,97.08168612,97.08820752,96.71698635
1.71E+12,128,128,4.460354957,3.409570463,3.274802542,4.477606609,-5.806250401,-16.13147449,-21.93772489,-4.741433629,97.03052587,97.08820752,97.09452961,96.72501114
1.71E+12,128,128,4.33385617,3.274802542,3.14003675,4.350708157,-5.806634475,-16.11977149,-21.92640597,-4.744165613,97.03841422,97.09452961,97.10065239,96.73285003
1.71E+12,128,128,4.205497047,3.14003675,3.005491074,4.221943492,-5.807002838,-16.10820157,-21.91520441,-4.746904594,97.04611273,97.10065239,97.10657619,96.74050027
1.71E+12,128,128,4.075516045,3.005491074,2.871378252,4.091551823,-5.807356348,-16.0967629,-21.90411925,-4.749650398,97.05361901,97.10657619,97.11230165,96.74795949
1.71E+12,128,128,3.944151321,2.871378252,2.737905244,3.95977206,-5.807695879,-16.08545333,-21.89314921,-4.752402785,97.06093101,97.11230165,97.11782971,96.75522564
1.71E+12,128,128,3.811640057,2.737905244,2.605272743,3.826842135,-5.808022323,-16.07427042,-21.88229274,-4.755161488,97.06804703,97.11782971,97.12316161,96.76229705
1.71E+12,128,128,3.678217803,2.605272743,2.473674699,3.692998341,-5.808336603,-16.06321153,-21.87154814,-4.757926196,97.07496574,97.12316161,97.1282989,96.76917238
1.71E+12,128,128,3.544117822,2.473674699,2.343297888,3.558474679,-5.808639646,-16.05227372,-21.86091336,-4.760696579,97.08168612,97.1282989,97.13324337,96.77585063
1.71E+12,128,128,3.409570463,2.343297888,2.214321502,3.423502227,-5.808932427,-16.0414536,-21.85038603,-4.763472256,97.08820752,97.13324337,97.13799709,96.78233114
1.71E+12,128,128,3.274802542,2.214321502,2.086916786,3.288308515,-5.809216086,-16.03074742,-21.8399635,-4.766252792,97.09452961,97.13799709,97.14256239,96.78861359
1.71E+12,128,128,3.14003675,2.086916786,1.961246689,3.153116939,-5.809491963,-16.02015112,-21.82964309,-4.769037727,97.10065239,97.14256239,97.14694183,96.79469799
1.71E+12,128,128,3.005491074,1.961246689,1.837465573,3.018146174,-5.809761547,-16.00966073,-21.81942228,-4.771826591,97.10657619,97.14694183,97.15113822,96.80058464
1.71E+12,128,128,2.871378252,1.837465573,1.715718941,2.883609631,-5.810026481,-15.99927257,-21.80929905,-4.774618854,97.11230165,97.15113822,97.15515455,96.8062742
1.71E+12,128,128,2.737905244,1.715718941,1.596143211,2.749714924,-5.810288691,-15.98898308,-21.79927177,-4.777413918,97.11782971,97.15515455,97.15899403,96.8117676
1.71E+12,128,128,2.605272743,1.596143211,1.478865524,2.616663378,-5.810550405,-15.9787886,-21.789339,-4.780211164,97.12316161,97.15899403,97.16266007,96.81706608
1.71E+12,128,128,2.473674699,1.478865524,1.364003588,2.484649559,-5.81081396,-15.96868547,-21.77949943,-4.783009966,97.1282989,97.16266007,97.16615625,96.82217116
1.71E+12,128,128,2.343297888,1.364003588,1.251665566,2.35386083,-5.811081617,-15.95867011,-21.76975173,-4.785809736,97.13324337,97.16615625,97.16948628,96.82708462
1.71E+12,128,128,2.214321502,1.251665566,1.141949998,2.224476952,-5.81135545,-15.94873895,-21.7600944,-4.788609876,97.13799709,97.16948628,97.17265405,96.83180854
1.71E+12,128,128,2.086916786,1.141949998,1.034945757,2.096669707,-5.811637364,-15.93888843,-21.75052579,-4.791409736,97.14256239,97.17265405,97.17566357,96.83634522
1.71E+12,128,128,1.961246689,1.034945757,0.930732051,1.970602564,-5.811929111,-15.92911497,-21.74104408,-4.79420864,97.14694183,97.17566357,97.17851897,96.84069721
1.71E+12,128,128,1.837465573,0.930732051,0.829378459,1.846430369,-5.812232304,-15.91941502,-21.73164732,-4.797005898,97.15113822,97.17851897,97.18122447,96.84486728
1.71E+12,128,128,1.715718941,0.829378459,0.730944998,1.724299087,-5.812548441,-15.90978498,-21.72233342,-4.799800781,97.15515455,97.18122447,97.1837844,96.84885843
1.71E+12,128,128,1.596143211,0.730944998,0.635482233,1.604345565,-5.812878881,-15.90022122,-21.7131001,-4.802592519,97.15899403,97.1837844,97.18620314,96.85267384
1.71E+12,128,128,1.478865524,0.635482233,0.543031423,1.486697345,-5.813224851,-15.89071998,-21.70394483,-4.805380344,97.16266007,97.18620314,97.18848516,96.8563169
1.71E+12,128,128,1.364003588,0.543031423,0.453624693,1.37147251,-5.813587498,-15.88127732,-21.69486482,-4.808163486,97.16615625,97.18848516,97.19063496,96.85979115
1.71E+12,128,128,1.251665566,0.453624693,0.367285248,1.258779563,-5.813967986,-15.87188914,-21.68585712,-4.810941109,97.16948628,97.19063496,97.19265706,96.8631003
1.71E+12,128,128,1.141949998,0.367285248,0.284027612,1.148717355,-5.814367529,-15.86255124,-21.67691877,-4.813712307,97.17265405,97.19265706,97.19455603,96.86624821
1.71E+12,128,128,1.034945757,0.284027612,0.203857903,1.041375041,-5.81478731,-15.85325941,-21.66804672,-4.81647611,97.17566357,97.19455603,97.19633644,96.86923886
1.71E+12,128,128,0.930732051,0.203857903,0.126774133,0.936832079,-5.815228457,-15.84400944,-21.65923789,-4.819231513,97.17851897,97.19633644,97.19800285,96.87207636
1.71E+12,128,128,0.829378459,0.126774133,0.052766534,0.835158267,-5.815692017,-15.83479707,-21.65048909,-4.82197751,97.18122447,97.19800285,97.19955981,96.8747649
1.71E+12,128,128,0.730944998,0.052766534,-0.018182084,0.736413811,-5.816178856,-15.82561808,-21.64179694,-4.82471309,97.1837844,97.19955981,97.20101184,96.87730878
1.71E+12,128,128,0.635482233,-0.018182084,-0.086095955,0.640649438,-5.816689665,-15.81646822,-21.63315788,-4.827437268,97.18620314,97.20101184,97.20236343,96.87971236
1.71E+12,128,128,0.543031423,-0.086095955,-0.15100596,0.547906535,-5.817225112,-15.80734323,-21.62456834,-4.830149029,97.18848516,97.20236343,97.20361902,96.88198007
1.71E+12,128,128,0.453624693,-0.15100596,-0.212949207,0.45821733,-5.817785835,-15.79823889,-21.61602472,-4.832847311,97.19063496,97.20361902,97.20478301,96.88411638
1.71E+12,128,128,0.367285248,-0.212949207,-0.27196859,0.371605101,-5.818372384,-15.78915102,-21.6075234,-4.835531076,97.19265706,97.20478301,97.2058597,96.88612581
1.71E+12,128,128,0.284027612,-0.27196859,-0.32811234,0.288084418,-5.818985226,-15.78007555,-21.59906077,-4.83819931,97.19455603,97.2058597,97.20685337,96.88801288
1.71E+12,128,128,0.203857903,-0.32811234,-0.381433553,0.207661418,-5.81962471,-15.7710085,-21.59063321,-4.84085101,97.19633644,97.20685337,97.20776818,96.88978212
1.71E+12,128,128,0.126774133,-0.381433553,-0.431989716,0.130334106,-5.820291097,-15.76194595,-21.58223705,-4.843485205,97.19800285,97.20776818,97.20860822,96.89143808
1.71E+12,128,128,0.052766534,-0.431989716,-0.479842216,0.056092684,-5.820984575,-15.75288399,-21.57386857,-4.846100958,97.19955981,97.20860822,97.2093775,96.89298528
1.71E+12,128,128,-0.018182084,-0.479842216,-0.525055846,-0.015080091,-5.82170531,-15.74381877,-21.56552408,-4.84869735,97.20101184,97.2093775,97.2100799,96.89442821
1.71E+12,128,128,-0.086095955,-0.525055846,-0.567698308,-0.083208531,-5.822453474,-15.7347465,-21.55719997,-4.851273481,97.20236343,97.2100799,97.21071924,96.89577132
1.71E+12,128,128,-0.15100596,-0.567698308,-0.607839706,-0.148323616,-5.823229191,-15.72566346,-21.54889266,-4.853828471,97.20361902,97.21071924,97.21129921,96.89701904
1.71E+12,128,128,-0.212949207,-0.607839706,-0.645552049,-0.210462569,-5.824032538,-15.71656605,-21.54059859,-4.856361503,97.20478301,97.21129921,97.21182341,96.89817573
1.71E+12,128,128,-0.27196859,-0.645552049,-0.680908751,-0.26966842,-5.824863556,-15.70745073,-21.53231429,-4.85887181,97.2058597,97.21182341,97.21229532,96.89924568
1.71E+12,128,128,-0.32811234,-0.680908751,-0.713984132,-0.325989553,-5.825722244,-15.69831411,-21.52403636,-4.861358666,97.20685337,97.21229532,97.21271832,96.90023312
1.71E+12,128,128,-0.381433553,-0.713984132,-0.744852932,-0.379479231,-5.826608547,-15.68915288,-21.51576143,-4.863821357,97.20776818,97.21271832,97.21309566,96.90114219
1.71E+12,128,128,-0.431989716,-0.744852932,-0.773589831,-0.430195123,-5.827522351,-15.67996385,-21.5074862,-4.866259165,97.20860822,97.21309566,97.2134305,96.90197697
1.71E+12,128,128,-0.479842216,-0.773589831,-0.80026898,-0.47819881,-5.828463494,-15.67074392,-21.49920741,-4.868671418,97.2093775,97.2134305,97.21372589,96.90274141
1.71E+12,128,128,-0.525055846,-0.80026898,-0.824963543,-0.52355529,-5.829431793,-15.66149017,-21.49092197,-4.871057482,97.2100799,97.21372589,97.21398475,96.90343941
1.71E+12,128,128,-0.567698308,-0.824963543,-0.847745261,-0.566332477,-5.830427025,-15.65219989,-21.48262692,-4.873416762,97.21071924,97.21398475,97.21420992,96.90407474
1.71E+12,128,128,-0.607839706,-0.847745261,-0.868684019,-0.6066007,-5.831448859,-15.64287055,-21.47431941,-4.875748743,97.21129921,97.21420992,97.21440413,96.90465108
1.71E+12,128,128,-0.645552049,-0.868684019,-0.887847451,-0.644432193,-5.83249681,-15.63349985,-21.46599666,-4.878052927,97.21182341,97.21440413,97.21456999,96.905172
1.71E+12,128,128,-0.680908751,-0.887847451,-0.905300546,-0.679900602,-5.833570208,-15.62408569,-21.4576559,-4.88032882,97.21229532,97.21456999,97.21471005,96.90564095
1.71E+12,128,128,-0.713984132,-0.905300546,-0.921105289,-0.713080482,-5.834668285,-15.61462613,-21.44929441,-4.882575983,97.21271832,97.21471005,97.21482673,96.90606129
1.71E+12,128,128,-0.744852932,-0.921105289,-0.935320323,-0.74404681,-5.835790254,-15.60511939,-21.44090964,-4.884793988,97.21309566,97.21482673,97.21492238,96.90643627
1.71E+12,128,128,-0.773589831,-0.935320323,-0.94800063,-0.772874502,-5.836935295,-15.59556385,-21.43249914,-4.886982417,97.2134305,97.21492238,97.21499928,96.90676901
1.71E+12,128,128,-0.80026898,-0.94800063,-0.959197248,-0.799637942,-5.838102535,-15.58595809,-21.42406063,-4.889140878,97.21372589,97.21499928,97.21505963,96.90706254
1.71E+12,128,128,-0.824963543,-0.959197248,-0.968957006,-0.824410527,-5.839291047,-15.57630092,-21.41559197,-4.891269003,97.21398475,97.21505963,97.21510554,96.90731978
1.71E+12,128,128,-0.847745261,-0.968957006,-0.977322293,-0.847264221,-5.84049983,-15.56659136,-21.40709119,-4.893366445,97.21420992,97.21510554,97.21513908,96.90754354
1.71E+12,128,128,-0.868684019,-0.977322293,-0.984330859,-0.868269135,-5.841727832,-15.55682863,-21.39855646,-4.895432918,97.21440413,97.21513908,97.21516225,96.90773653
1.71E+12,128,128,-0.887847451,-0.984330859,-0.990015637,-0.887493112,-5.842973973,-15.54701221,-21.38998618,-4.897468165,97.21456999,97.21516225,97.21517702,96.90790136
1.71E+12,128,128,-0.905300546,-0.990015637,-0.994404605,-0.905001349,-5.844237094,-15.53714176,-21.38137885,-4.899471926,97.21471005,97.21517702,97.21518529,96.90804053
1.71E+12,128,128,-0.921105289,-0.994404605,-0.997520675,-0.920856026,-5.845515943,-15.52721714,-21.37273308,-4.901443967,97.21482673,97.21518529,97.21518896,96.90815648
1.71E+12,128,128,-0.935320323,-0.997520675,-0.999381614,-0.935115972,-5.846809149,-15.51723836,-21.36404751,-4.903384066,97.21492238,97.21518896,97.21518987,96.90825154
1.71E+12,128,128,-0.94800063,-0.999381614,-1,-0.947836342,-5.848115199,-15.50720568,-21.35532088,-4.905292035,97.21499928,97.21518987,97.21518987,96.90832796
1.71E+12,128,128,-0.959197248,-1,-1,-0.959068334,-5.849432466,-15.49711958,-21.34655204,-4.907167696,97.21505963,97.21518987,97.21518987,96.90838792
1.71E+12,128,128,-0.968957006,-1,-1,-0.968858927,-5.850759231,-15.48698074,-21.33773997,-4.909010852,97.21510554,97.21518987,97.21518987,96.90843354
1.71E+12,128,128,-0.977322293,-1,-1,-0.977250645,-5.852093759,-15.47679008,-21.32888384,-4.910821331,97.21513908,97.21518987,97.21518987,96.90846687
1.71E+12,128,128,-0.984330859,-1,-1,-0.984281353,-5.853434345,-15.46654873,-21.31998308,-4.912599014,97.21516225,97.21518987,97.21518987,96.9084899
1.71E+12,128,128,-0.990015637,-1,-1,-0.989984092,-5.854779316,-15.45625803,-21.31103735,-4.914343816,97.21517702,97.21518987,97.21518987,96.90850457
1.71E+12,128,128,-0.994404605,-1,-1,-0.994386926,-5.856127043,-15.44591949,-21.30204653,-4.916055664,97.21518529,97.21518987,97.21518987,96.9085128
1.71E+12,128,128,-0.997520675,-1,-1,-0.997512841,-5.857475938,-15.43553482,-21.29301076,-4.917734502,97.21518896,97.21518987,97.21518987,96.90851644
1.71E+12,128,128,-0.999381614,-1,-1,-0.99937966,-5.858824419,-15.42510595,-21.28393037,-4.919380274,97.21518987,97.21518987,97.21518987,96.90851735
1.71E+12,128,128,-1,-1,-1,-1,-5.86017089,-15.41463496,-21.27480585,-4.920992922,97.21518987,97.21518987,97.21518987,96.90851735
1.71E+12,128,128,-1,-1,-1,-1,-5.861513674,-15.4041241,-21.26563777,-4.922572411,97.21518987,97.21518987,97.21518987,96.90851735
1.71E+12,128,128,-1,-1,-1,-1,-5.862850955,-15.39357578,-21.25642673,-4.924118698,97.21518987,97.21518987,97.21518987,96.90851735
1.71E+12,128,128,-1,-1,-1,-1,-5.864180822,-15.38299261,-21.24717343,-4.925631771,97.21518987,97.21518987,97.21518987,96.90851735
1.71E+12,128,128,-1,-1,-1,-1,-5.865501318,-15.37237739,-21.23787871,-4.927111646,97.21518987,97.21518987,97.21518987,96.90851735
1.71E+12,128,128,-1,-1,-1,-1,-5.866810466,-15.36173308,-21.22854354,-4.9285583,97.21518987,97.21518987,97.21518987,96.90851735
1.71E+12,128,128,-1,-1,-1,-1,-5.868106325,-15.35106279,-21.21916912,-4.929971693,97.21518987,97.21518987,97.21518987,96.90851735
1.71E+12,128,128,-1,-1,-1,-1,-5.869386993,-15.34036979,-21.20975678,-4.93135182,97.21518987,97.21518987,97.21518987,96.90851735
1.71E+12,128,128,-1,-1,-1,-1,-5.870650605,-15.32965743,-21.20030804,-4.932698679,97.21518987,97.21518987,97.21518987,96.90851735
1.71E+12,128,128,-1,-1,-1,-1,-5.871895344,-15.31892921,-21.19082455,-4.934012268,97.21518987,97.21518987,97.21518987,96.90851735
1.71E+12,128,128,-1,-1,-1,-1,-5.873119391,-15.30818871,-21.1813081,-4.935292585,97.21518987,97.21518987,97.21518987,96.90851735
1.71E+12,128,128,-1,-1,-1,-1,-5.874320913,-15.29743966,-21.17176058,-4.936539662,97.21518987,97.21518987,97.21518987,96.90851735
1.71E+12,128,128,-1,-1,-1,-1,-5.875498175,-15.28668588,-21.16218405,-4.937753537,97.21518987,97.21518987,97.21518987,96.90851735
1.71E+12,128,128,-1,-1,-1,-1,-5.876649554,-15.27593129,-21.15258084,-4.938934238,97.21518987,97.21518987,97.21518987,96.90851735
1.71E+12,128,128,-1,-1,-1,-1,-5.877773505,-15.26517992,-21.14295342,-4.940081803,97.21518987,97.21518987,97.21518987,96.90851735
1.71E+12,128,128,-1,-1,-1,-1,-5.878868439,-15.25443585,-21.13330429,-4.941196276,97.21518987,97.21518987,97.21518987,96.90851735
1.71E+12,128,128,-1,-1,-1,-1,-5.87993258,-15.24370324,-21.12363582,-4.942277693,97.21518987,97.21518987,97.21518987,96.90851735
1.71E+12,128,128,-1,-1,-1,-1,-5.880963982,-15.23298625,-21.11395023,-4.943326091,97.21518987,97.21518987,97.21518987,96.90851735
1.71E+12,128,128,-1,-1,-1,-1,-5.881960613,-15.22228907,-21.10424968,-4.944341514,97.21518987,97.21518987,97.21518987,96.90851735
1.71E+12,128,128,-1,-1,-1,-1,-5.882920371,-15.21161593,-21.0945363,-4.945323955,97.21518987,97.21518987,97.21518987,96.90851735
1.71E+12,128,128,-1,-1,-1,-1,-5.883841179,-15.20097112,-21.0848123,-4.946273395,97.21518987,97.21518987,97.21518987,96.90851735
1.71E+12,128,128,-1,-1,-1,-1,-5.884721052,-15.19035901,-21.07508006,-4.947189806,97.21518987,97.21518987,97.21518987,96.90851735
1.71E+12,128,128,-1,-1,-1,-1,-5.885558095,-15.17978401,-21.06534211,-4.948073149,97.21518987,97.21518987,97.21518987,96.90851735
1.71E+12,128,128,-1,-1,-1,-1,-5.886350526,-15.16925055,-21.05560108,-4.948923393,97.21518987,97.21518987,97.21518987,96.90851735
1.71E+12,128,128,-1,-1,-1,-1,-5.887096723,-15.15876304,-21.04585976,-4.949740515,97.21518987,97.21518987,97.21518987,96.90851735
1.71E+12,128,128,-1,-1,-1,-1,-5.887795168,-15.14832582,-21.03612099,-4.950524459,97.21518987,97.21518987,97.21518987,96.90851735
1.71E+12,128,128,-1,-1,-1,-1,-5.888444387,-15.13794317,-21.02638756,-4.951275175,97.21518987,97.21518987,97.21518987,96.90851735
1.71E+12,128,128,-1,-1,-1,-1,-5.889042906,-15.12761932,-21.01666223,-4.951992673,97.21518987,97.21518987,97.21518987,96.90851735
1.71E+12,128,128,-1,-1,-1,-1,-5.889589256,-15.11735847,-21.00694773,-4.952676993,97.21518987,97.21518987,97.21518987,96.90851735
1.71E+12,128,128,-1,-1,-1,-1,-5.890082052,-15.10716479,-20.99724684,-4.953328146,97.21518987,97.21518987,97.21518987,96.90851735
1.71E+12,128,128,-1,-1,-1,-1,-5.890520024,-15.09704237,-20.98756239,-4.953946163,97.21518987,97.21518987,97.21518987,96.90851735
1.71E+12,128,128,-1,-1,-1,-1,-5.89090198,-15.08699526,-20.97789724,-4.954531136,97.21518987,97.21518987,97.21518987,96.90851735
1.71E+12,128,128,-1,-1,-1,-1,-5.891226817,-15.07702743,-20.96825424,-4.955083152,97.21518987,97.21518987,97.21518987,96.90851735
1.71E+12,128,128,-1,-1,-1,-1,-5.891493537,-15.06714273,-20.95863627,-4.955602319,97.21518987,97.21518987,97.21518987,96.90851735
1.71E+12,128,128,-1,-1,-1,-1,-5.891701254,-15.05734491,-20.94904617,-4.956088739,97.21518987,97.21518987,97.21518987,96.90851735
1.71E+12,128,128,-1,-1,-1,-1,-5.891849198,-15.04763761,-20.93948681,-4.956542587,97.21518987,97.21518987,97.21518987,96.90851735
1.71E+12,128,128,-1,-1,-1,-1,-5.891936762,-15.03802434,-20.9299611,-4.956964096,97.21518987,97.21518987,97.21518987,96.90851735
1.71E+12,128,128,-1,-1,-1,-1,-5.891963496,-15.02850854,-20.92047204,-4.957353474,97.21518987,97.21518987,97.21518987,96.90851735
1.71E+12,128,128,-1,-1,-1,-1,-5.891929034,-15.01909358,-20.91102261,-4.957710926,97.21518987,97.21518987,97.21518987,96.90851735
1.71E+12,128,128,-1,-1,-1,-1,-5.891833015,-15.0097827,-20.90161571,-4.958036693,97.21518987,97.21518987,97.21518987,96.90851735
1.71E+12,128,128,-1,-1,-1,-1,-5.891674995,-15.00057907,-20.89225406,-4.958331066,97.21518987,97.21518987,97.21518987,96.90851735
1.71E+12,128,128,-1,-1,-1,-1,-5.891454502,-14.99148576,-20.88294027,-4.958594366,97.21518987,97.21518987,97.21518987,96.90851735
1.71E+12,128,128,-1,-1,-1,-1,-5.891171108,-14.98250576,-20.87367686,-4.958826958,97.21518987,97.21518987,97.21518987,96.90851735
1.71E+12,128,128,-1,-1,-1,-1,-5.890824449,-14.97364188,-20.86446633,-4.959029204,97.21518987,97.21518987,97.21518987,96.90851735
1.71E+12,128,128,-1,-1,-1,-1,-5.890414312,-14.96489685,-20.85531116,-4.959201526,97.21518987,97.21518987,97.21518987,96.90851735
1.71E+12,128,128,-1,-1,-1,-1,-5.889940649,-14.95627324,-20.84621389,-4.959344383,97.21518987,97.21518987,97.21518987,96.90851735
1.71E+12,128,128,-1,-1,-1,-1,-5.889403536,-14.94777355,-20.83717708,-4.959458219,97.21518987,97.21518987,97.21518987,96.90851735
1.71E+12,128,128,-1,-1,-1,-1,-5.88880313,-14.93940013,-20.82820326,-4.959543512,97.21518987,97.21518987,97.21518987,96.90851735
1.71E+12,128,128,-1,-1,-1,-1,-5.888139746,-14.93115522,-20.81929497,-4.959600785,97.21518987,97.21518987,97.21518987,96.90851735
1.71E+12,128,128,-1,-1,-1,-1,-5.887413936,-14.92304089,-20.81045482,-4.959630614,97.21518987,97.21518987,97.21518987,96.90851735
1.71E+12,128,128,-1,-1,-1,-1,-5.886626426,-14.91505903,-20.80168546,-4.959633607,97.21518987,97.21518987,97.21518987,96.90851735
1.71E+12,128,128,-1,-1,-1,-1,-5.885778049,-14.90721144,-20.79298948,-4.95961037,97.21518987,97.21518987,97.21518987,96.90851735
1.71E+12,128,128,-1,-1,-1,-1,-5.884869706,-14.89949971,-20.78436941,-4.959561527,97.21518987,97.21518987,97.21518987,96.90851735
1.71E+12,128,128,-1,-1,-1,-1,-5.88390232,-14.89192532,-20.77582764,-4.959487774,97.21518987,97.21518987,97.21518987,96.90851735
1.71E+12,128,128,-1,-1,-1,-1,-5.882876841,-14.88448965,-20.76736649,-4.959389858,97.21518987,97.21518987,97.21518987,96.90851735
1.71E+12,128,128,-1,-1,-1,-1,-5.881794281,-14.87719398,-20.75898826,-4.959268546,97.21518987,97.21518987,97.21518987,96.90851735
1.71E+12,128,128,-1,-1,-1,-1,-5.880655686,-14.8700395,-20.75069519,-4.959124644,97.21518987,97.21518987,97.21518987,96.90851735
1.71E+12,128,128,-1,-1,-1,-1,-5.879462107,-14.86302728,-20.74248939,-4.958959017,97.21518987,97.21518987,97.21518987,96.90851735
1.71E+12,128,128,-1,-1,-1,-1,-5.878214517,-14.85615825,-20.73437277,-4.958772573,97.21518987,97.21518987,97.21518987,96.90851735
1.71E+12,128,128,-1,-1,-1,-1,-5.876913783,-14.8494332,-20.72634698,-4.958566229,97.21518987,97.21518987,97.21518987,96.90851735
1.71E+12,128,128,-1,-1,-1,-1,-5.87556078,-14.84285277,-20.71841355,-4.958340874,97.21518987,97.21518987,97.21518987,96.90851735
1.71E+12,128,128,-1,-1,-1,-1,-5.874156494,-14.83641744,-20.71057393,-4.958097419,97.21518987,97.21518987,97.21518987,96.90851735
1.71E+12,128,128,-1,-1,-1,-1,-5.872702053,-14.83012757,-20.70282962,-4.957836807,97.21518987,97.21518987,97.21518987,96.90851735
1.71E+12,128,128,-1,-1,-1,-1,-5.871198735,-14.82398342,-20.69518216,-4.957560022,97.21518987,97.21518987,97.21518987,96.90851735
1.71E+12,128,128,-1,-1,-1,-1,-5.869647922,-14.81798519,-20.68763311,-4.957268092,97.21518987,97.21518987,97.21518987,96.90851735
1.71E+12,128,128,-1,-1,-1,-1,-5.868051089,-14.81213301,-20.6801841,-4.956962069,97.21518987,97.21518987,97.21518987,96.90851735
1.71E+12,128,128,-1,-1,-1,-1,-5.866409835,-14.80642693,-20.67283677,-4.95664307,97.21518987,97.21518987,97.21518987,96.90851735
1.71E+12,128,128,-1,-1,-1,-1,-5.864725899,-14.80086689,-20.66559279,-4.956312258,97.21518987,97.21518987,97.21518987,96.90851735
1.71E+12,128,128,-1,-1,-1,-1,-5.863001064,-14.79545274,-20.65845381,-4.955970808,97.21518987,97.21518987,97.21518987,96.90851735
1.71E+12,128,128,-1,-1,-1,-1,-5.861237087,-14.79018425,-20.65142134,-4.955619887,97.21518987,97.21518987,97.21518987,96.90851735
1.71E+12,128,128,-1,-1,-1,-1,-5.859435649,-14.7850611,-20.64449674,-4.955260693,97.21518987,97.21518987,97.21518987,96.90851735
1.71E+12,128,128,-1,-1,-1,-1,-5.857598357,-14.78008293,-20.63768129,-4.954894486,97.21518987,97.21518987,97.21518987,96.90851735
1.71E+12,128,128,-1,-1,-1,-1,-5.855726771,-14.77524939,-20.63097617,-4.954522528,97.21518987,97.21518987,97.21518987,96.90851735
1.71E+12,128,128,-1,-1,-1,-1,-5.853822481,-14.77056007,-20.62438255,-4.954146067,97.21518987,97.21518987,97.21518987,96.90851735
1.71E+12,128,128,-1,-1,-1,-1,-5.851887151,-14.7660145,-20.61790165,-4.953766354,97.21518987,97.21518987,97.21518987,96.90851735
1.71E+12,128,128,-1,-1,-1,-1,-5.849922481,-14.76161218,-20.61153466,-4.953384644,97.21518987,97.21518987,97.21518987,96.90851735
1.71E+12,128,128,-1,-1,-1,-1,-5.847930191,-14.75735254,-20.60528273,-4.953002221,97.21518987,97.21518987,97.21518987,96.90851735
1.71E+12,128,128,-1,-1,-1,-1,-5.845911982,-14.75323492,-20.59914691,-4.952620357,97.21518987,97.21518987,97.21518987,96.90851735
1.71E+12,128,128,-1,-1,-1,-1,-5.843869522,-14.74925866,-20.59312818,-4.952240356,97.21518987,97.21518987,97.21518987,96.90851735
1.71E+12,128,128,-1,-1,-1,-1,-5.841804511,-14.74542302,-20.58722753,-4.951863553,97.21518987,97.21518987,97.21518987,96.90851735
1.71E+12,128,128,-1,-1,-1,-1,-5.839718798,-14.74172727,-20.58144607,-4.951491251,97.21518987,97.21518987,97.21518987,96.90851735
1.71E+12,128,128,-1,-1,-1,-1,-5.837614414,-14.73817064,-20.57578505,-4.951124752,97.21518987,97.21518987,97.21518987,96.90851735
1.71E+12,128,128,-1,-1,-1,-1,-5.835493487,-14.73475231,-20.5702458,-4.950765369,97.21518987,97.21518987,97.21518987,96.90851735
1.71E+12,128,128,-1,-1,-1,-1,-5.833358147,-14.73147149,-20.56482964,-4.950414449,97.21518987,97.21518987,97.21518987,96.90851735
1.71E+12,128,128,-1,-1,-1,-1,-5.831210438,-14.72832737,-20.55953781,-4.950073351,97.21518987,97.21518987,97.21518987,96.90851735
1.71E+12,128,128,-1,-1,-1,-1,-5.829052286,-14.72531911,-20.55437139,-4.949743404,97.21518987,97.21518987,97.21518987,96.90851735
1.71E+12,128,128,-1,-1,-1,-1,-5.826885591,-14.7224458,-20.54933139,-4.949425924,97.21518987,97.21518987,97.21518987,96.90851735
1.71E+12,128,128,-1,-1,-1,-1,-5.824712317,-14.71970656,-20.54441887,-4.949122205,97.21518987,97.21518987,97.21518987,96.90851735
1.71E+12,128,128,-1,-1,-0.999412874,-1,-5.82253448,-14.71710047,-20.53963495,-4.948833559,97.21518987,97.21518987,97.21519506,96.90851735
1.71E+12,128,128,-1,-0.99944218,-0.997646007,-1,-5.820354058,-14.71462668,-20.53498073,-4.948561297,97.21518987,97.21520045,97.21521585,96.90851735
1.71E+12,128,128,-1,-0.997763506,-0.994687458,-1,-5.818172935,-14.71228427,-20.5304572,-4.948306708,97.21518987,97.21524286,97.21526278,96.90851735
1.71E+12,128,128,-1,-0.994952632,-0.990520357,-1,-5.815992958,-14.71007231,-20.52606527,-4.948071076,97.21518987,97.21533857,97.21534652,96.90851735
1.71E+12,128,128,-1,-0.990993531,-0.98512295,-1,-5.813816007,-14.70798986,-20.52180587,-4.947855662,97.21518987,97.21550936,97.21547794,96.90851735
1.71E+12,128,128,-1,-0.985865535,-0.978468674,-1,-5.811644022,-14.70603593,-20.51767996,-4.9476617,97.21518987,97.21577738,97.21566814,96.90851735
1.71E+12,128,128,-1,-0.979543406,-0.97052626,-1,-5.809478971,-14.70420955,-20.51368852,-4.947490401,97.21518987,97.21616529,97.2159285,96.90851735
1.71E+12,128,128,-1,-0.971997437,-0.961259868,-1,-5.807322715,-14.70250973,-20.50983245,-4.947342945,97.21518987,97.21669629,97.21627072,96.90851735
1.71E+12,128,128,-1,-0.963193575,-0.950629251,-1,-5.805176977,-14.70093552,-20.5061125,-4.947220462,97.21518987,97.21739423,97.21670685,96.90851735
1.71E+12,128,128,-1,-0.953093583,-0.938589946,-1,-5.803043373,-14.69948597,-20.50252934,-4.94712407,97.21518987,97.2182837,97.21724932,96.90851735
1.71E+12,128,128,-1,-0.941655217,-0.925093496,-1,-5.800923502,-14.69816012,-20.49908362,-4.947054854,97.21518987,97.21939007,97.21791102,96.90851735
1.71E+12,128,128,-1,-0.92883244,-0.910087698,-1,-5.798819148,-14.69695701,-20.49577616,-4.947013898,97.21518987,97.22073958,97.21870528,96.90851735
1.71E+12,128,128,-0.99941092,-0.914575654,-0.893516875,-1,-5.796732307,-14.69587564,-20.49260795,-4.947002287,97.21519472,97.22235945,97.21964591,96.90851735
1.71E+12,128,128,-0.997638174,-0.89883196,-0.875322174,-0.999414828,-5.794665025,-14.69491496,-20.48957998,-4.947021024,97.21521415,97.22427785,97.22074728,96.90852319
1.71E+12,128,128,-0.994669779,-0.881545445,-0.855441891,-0.99765384,-5.792619196,-14.69407392,-20.48669312,-4.947071099,97.215258,97.22652405,97.22202425,96.90854658
1.71E+12,128,128,-0.990488812,-0.862657482,-0.833811812,-0.994705136,-5.790596444,-14.69335148,-20.48394793,-4.947153497,97.21533624,97.22912841,97.2234923,96.90859939
1.71E+12,128,128,-0.985073444,-0.842107065,-0.810365584,-0.990551902,-5.788598166,-14.69274658,-20.48134475,-4.947269139,97.21545904,97.23212246,97.22516747,96.90869361
1.71E+12,128,128,-0.978397025,-0.81983115,-0.785035093,-0.985172456,-5.78662561,-14.69225819,-20.4788838,-4.947418872,97.21563676,97.23553892,97.2270664,96.90884149
1.71E+12,128,128,-0.970428182,-0.795765026,-0.757750873,-0.978540323,-5.784679911,-14.6918853,-20.47656522,-4.947603512,97.21588004,97.23941174,97.22920635,96.9090555
1.71E+12,128,128,-0.961130955,-0.769842692,-0.728442522,-0.970624339,-5.782762189,-14.69162698,-20.47438917,-4.947823852,97.2161998,97.2437761,97.2316052,96.90934846
1.71E+12,128,128,-0.950464962,-0.741997262,-0.697039135,-0.961388782,-5.780873637,-14.69148226,-20.4723559,-4.948080634,97.21660731,97.24866849,97.23428145,96.90973352
1.71E+12,128,128,-0.938385594,-0.712161369,-0.66346975,-0.95079354,-5.779015561,-14.69145021,-20.47046577,-4.948374571,97.21711419,97.25412664,97.23725425,96.91022425
1.71E+12,128,128,-0.924844233,-0.680267594,-0.627663803,-0.938794297,-5.777189323,-14.69152984,-20.46871916,-4.948706358,97.21773247,97.26018958,97.24054334,96.91083465
1.71E+12,128,128,-0.909788501,-0.646248894,-0.589551593,-0.925342759,-5.775396239,-14.69172016,-20.4671164,-4.949076656,97.21847461,97.2668976,97.24416911,96.91157919
1.71E+12,128,128,-0.893162536,-0.610039048,-0.549064751,-0.910386896,-5.773637583,-14.6920202,-20.46565778,-4.949486059,97.21935353,97.27429225,97.24815252,96.91247289
1.71E+12,128,128,-0.87490729,-0.571573099,-0.506136715,-0.893871214,-5.771914595,-14.69242894,-20.46434354,-4.949935132,97.22038263,97.28241632,97.25251514,96.91353129
1.71E+12,128,128,-0.854960852,-0.530787808,-0.460703207,-0.875737059,-5.770228487,-14.69294537,-20.46317385,-4.950424409,97.22157582,97.29131377,97.25727911,96.91477055
1.71E+12,128,128,-0.833258796,-0.487622105,-0.412702709,-0.85592293,-5.76858048,-14.69356844,-20.46214892,-4.950954365,97.22294754,97.30102976,97.2624671,96.91620741
1.71E+12,128,128,-0.809734546,-0.442017543,-0.362076937,-0.834364829,-5.766971781,-14.69429712,-20.46126891,-4.95152547,97.2245128,97.31161053,97.2681023,96.91785926
1.71E+12,128,128,-0.784319764,-0.393918747,-0.30877131,-0.810996621,-5.765403565,-14.69513035,-20.46053392,-4.952138129,97.22628713,97.32310337,97.27420838,96.91974416
1.71E+12,128,128,-0.756944751,-0.34327386,-0.252735416,-0.785750422,-5.763876985,-14.69606708,-20.45994407,-4.952792676,97.22828666,97.33555657,97.28080947,96.92188084
1.71E+12,128,128,-0.727538872,-0.290034987,-0.193923463,-0.758556994,-5.762393182,-14.69710624,-20.45949942,-4.953489416,97.23052811,97.34901931,97.28793008,96.92428871
1.71E+12,128,128,-0.696030986,-0.234158621,-0.132294723,-0.729346171,-5.760953263,-14.69824674,-20.4592,-4.954228643,97.23302876,97.36354161,97.2955951,96.9269879
1.71E+12,128,128,-0.662349894,-0.175606069,-0.067813967,-0.698047284,-5.759558306,-14.69948745,-20.45904575,-4.955010615,97.2358065,97.37917421,97.30382972,96.92999923
1.71E+12,128,128,-0.626424797,-0.114343858,-4.52E-04,-0.664589606,-5.758209373,-14.70082724,-20.45903661,-4.955835535,97.23887978,97.3959685,97.31265939,96.93334422
1.71E+12,128,128,-0.588185763,-0.050344131,0.069814567,-0.628902809,-5.756907514,-14.70226502,-20.45917253,-4.956703559,97.24226764,97.41397639,97.32210978,96.93704512
1.71E+12,128,128,-0.547564195,0.016414974,0.143001675,-0.590917423,-5.755653767,-14.70379969,-20.45945345,-4.957614829,97.24598969,97.4332502,97.33220667,96.94112483
1.71E+12,128,128,-0.504493309,0.085948962,0.219118725,-0.550565308,-5.754449173,-14.70543015,-20.45987933,-4.958569451,97.25006606,97.45384256,97.34297596,96.94560698
1.71E+12,128,128,-0.458908614,0.158266643,0.298167603,-0.507780121,-5.753294777,-14.70715537,-20.46045015,-4.959567504,97.25451744,97.47580624,97.35444354,96.95051581
1.71E+12,128,128,-0.410748387,0.233369811,0.380142503,-0.462497801,-5.752191643,-14.70897439,-20.46116604,-4.960609066,97.25936502,97.49919406,97.36663526,96.95587623
1.71E+12,128,128,-0.35995415,0.311252949,0.465029632,-0.414657032,-5.751140881,-14.7108863,-20.46202718,-4.961694184,97.26463047,97.52405875,97.37957684,96.96171377
1.71E+12,128,128,-0.30647114,0.391902954,0.552806961,-0.364199724,-5.75014369,-14.71289013,-20.46303382,-4.962822876,97.2703359,97.55045277,97.39329382,96.9680545
1.71E+12,128,128,-0.250248778,0.475298894,0.643443987,-0.31107148,-5.749201322,-14.714985,-20.46418633,-4.963995122,97.27650386,97.57842819,97.40781146,96.97492508
1.71E+12,128,128,-0.191241119,0.561411789,0.736901538,-0.255222054,-5.748315008,-14.71717022,-20.46548523,-4.965210851,97.28315726,97.60803652,97.42315467,96.98235263
1.71E+12,128,128,-0.1294073,0.650204424,0.833131604,-0.196605807,-5.747485937,-14.71944516,-20.4669311,-4.96646997,97.29031934,97.6393286,97.43934794,96.99036476
1.71E+12,128,128,-0.064711974,0.741631185,0.932077202,-0.135182146,-5.746715236,-14.72180931,-20.46852454,-4.967772367,97.29801365,97.67235435,97.45641527,96.99898945
1.71E+12,128,128,0.002874277,0.835637931,1.03367227,-0.07091596,-5.746003979,-14.72426225,-20.47026623,-4.969117859,97.30626397,97.70716271,97.47438005,97.00825506
1.71E+12,128,128,0.07337454,0.932161901,1.137841607,-0.003778024,-5.745353155,-14.72680385,-20.472157,-4.970506197,97.31509427,97.74380141,97.49326503,97.01819023
1.71E+12,128,128,0.14680519,1.031131645,1.244500828,0.066254594,-5.744763543,-14.7294342,-20.47419774,-4.971937088,97.32452866,97.78231683,97.5130922,97.02882382
1.71E+12,128,128,0.22317553,1.132466991,1.353556378,0.139198161,-5.74423566,-14.73215353,-20.47638919,-4.973410144,97.33459133,97.82275383,97.53388273,97.04018486
1.71E+12,128,128,0.302487456,1.236079054,1.46490556,0.215061919,-5.743769817,-14.73496189,-20.4787317,-4.9749249,97.34530646,97.86515557,97.55565689,97.05230248
1.71E+12,128,128,0.38473514,1.341870263,1.578436617,0.293847751,-5.743366096,-14.7378589,-20.481225,-4.976480863,97.35669823,97.90956338,97.57843393,97.06520582
1.71E+12,128,128,0.469904744,1.449734438,1.694028834,0.375549866,-5.74302424,-14.74084397,-20.48386821,-4.978077495,97.36879065,97.95601658,97.60223209,97.07892397
1.71E+12,128,128,0.557974166,1.559556891,1.81155269,0.460154521,-5.742743646,-14.74391654,-20.48666019,-4.979714211,97.3816076,98.00455228,97.62706841,97.09348586
1.71E+12,128,128,0.6489128,1.671214566,1.930870037,0.547639757,-5.742523536,-14.74707596,-20.4895995,-4.981390343,97.39517267,98.0552053,97.65295873,97.10892023
1.71E+12,128,128,0.742681346,1.78457621,2.051834317,0.637975174,-5.742363145,-14.75032137,-20.49268451,-4.983105135,97.40950914,98.10800794,97.67991762,97.1252555
1.71E+12,128,128,0.839231632,1.899502581,2.174290816,0.73112173,-5.742261787,-14.75365172,-20.49591351,-4.984857781,97.42463989,98.16298988,97.70795825,97.1425197
1.71E+12,128,128,0.938506486,2.015846687,2.298076949,0.827031576,-5.742218872,-14.75706586,-20.49928473,-4.986647417,97.44058735,98.220178,97.73709236,97.1607404
1.71E+12,128,128,1.040439628,2.133454058,2.423022579,0.925647917,-5.742233885,-14.76056244,-20.50279633,-4.988473123,97.45737338,98.27959626,97.7673302,97.17994459
1.71E+12,128,128,1.144955604,2.252163051,2.548950374,1.026904912,-5.742306352,-14.76414001,-20.50644637,-4.990333924,97.47501923,98.34126554,97.79868044,97.20015859
1.71E+12,128,128,1.251969751,2.371805183,2.675676186,1.130727609,-5.742435813,-14.76779705,-20.51023286,-4.992228841,97.49354545,98.40520353,97.83115014,97.22140801
1.71E+12,128,128,1.361388199,2.4922055,2.803009471,1.237031906,-5.742621791,-14.77153201,-20.5141538,-4.99415691,97.51297182,98.47142463,97.86474466,97.24371758
1.71E+12,128,128,1.473107914,2.613182968,2.930753728,1.345724556,-5.742863775,-14.77534338,-20.51820715,-4.996117125,97.53331727,98.53993976,97.89946762,97.26711112
1.71E+12,128,128,1.587016762,2.734550894,3.058706974,1.456703207,-5.743161216,-14.77922975,-20.52239096,-4.998108474,97.55459981,98.61075634,97.93532089,97.29161144
1.71E+12,128,128,1.70299363,2.856117378,3.18666224,1.569856472,-5.7435135,-14.78318979,-20.52670329,-5.000129963,97.57683646,98.68387813,97.97230447,97.31724021
1.71E+12,128,128,1.820908565,2.977685781,3.314408094,1.685064038,-5.743919931,-14.78722224,-20.53114217,-5.002180605,97.60004315,98.75930516,98.01041651,97.34401794
1.71E+12,128,128,1.940622959,3.099055225,3.441729186,1.802196815,-5.744379748,-14.79132582,-20.53570557,-5.004259443,97.6242347,98.83703367,98.04965326,97.37196381
1.71E+12,128,128,2.061989766,3.220021109,3.568406812,1.921117115,-5.744892116,-14.79549925,-20.54039136,-5.00636549,97.64942469,98.917056,98.09000905,97.40109565
1.71E+12,128,128,2.184853758,3.340375645,3.694219498,2.041678868,-5.745456122,-14.7997412,-20.54519732,-5.008497773,97.67562544,98.99936055,98.13147621,97.43142984
1.71E+12,128,128,2.309051808,3.459908414,3.818943603,2.163727874,-5.746070806,-14.80405031,-20.55012112,-5.010655332,97.70284793,99.08393175,98.17404516,97.4629812
1.71E+12,128,128,2.434413214,3.578406939,3.942353935,2.287102089,-5.746735196,-14.80842519,-20.55516038,-5.012837175,97.73110172,99.17074999,98.21770426,97.49576295
1.71E+12,128,128,2.560760053,3.695657267,4.064224375,2.411631944,-5.747448262,-14.81286438,-20.56031264,-5.01504235,97.76039493,99.25979159,98.26243993,97.52978662
1.71E+12,128,128,2.687907565,3.811444567,4.184328521,2.537140695,-5.74820889,-14.8173664,-20.56557529,-5.017269947,97.79073414,99.35102881,98.30823656,97.56506197
1.71E+12,128,128,2.815664571,3.925553737,4.30244033,2.663444807,-5.749015888,-14.82192968,-20.57094556,-5.019519006,97.82212437,99.44442983,98.35507655,97.60159694
1.71E+12,128,128,2.943833917,4.037770017,4.41833477,2.790354371,-5.749867954,-14.82655256,-20.57642051,-5.021788493,97.854569,99.53995875,98.40294031,97.63939755
1.71E+12,128,128,3.072212947,4.147879609,4.531788479,2.917673539,-5.750763685,-14.83123336,-20.58199704,-5.024077346,97.88806977,99.63757564,98.45180629,97.67846789
1.71E+12,128,128,3.200594004,4.255670296,4.642580413,3.045201001,-5.751701595,-14.83597035,-20.58767195,-5.026384541,97.92262668,99.7372365,98.50165096,97.71881005
1.71E+12,128,128,3.328764952,4.360932073,4.75049251,3.172730476,-5.752680169,-14.84076176,-20.59344193,-5.028709047,97.95823802,99.8388934,98.55244889,97.76042404
1.71E+12,128,128,3.456509725,4.463457757,4.85531033,3.300051236,-5.753697857,-14.84560582,-20.59930368,-5.031049797,97.99490027,99.94249445,98.60417275,97.80330777
1.71E+12,128,128,3.58360889,4.563043615,4.956823705,3.426948648,-5.75475304,-14.85050074,-20.60525378,-5.033405742,98.03260812,100.0479839,98.65679335,97.84745704
1.71E+12,128,128,3.709840237,4.659489969,5.054827372,3.553204734,-5.755844045,-14.85544467,-20.61128872,-5.035775825,98.07135444,100.1553022,98.71027967,97.89286544
1.71E+12,128,128,3.834979381,4.752601802,5.149121597,3.678598759,-5.756969124,-14.86043576,-20.61740489,-5.038158955,98.11113023,100.2643862,98.76459896,97.93952437
1.71E+12,128,128,3.958800379,4.842189348,5.239512781,3.802907826,-5.758126432,-14.86547207,-20.62359851,-5.040554041,98.15192466,100.3751689,98.81971674,97.98742302
1.71E+12,128,128,4.081076362,4.928068673,5.325814061,3.92590749,-5.759314043,-14.87055161,-20.62986566,-5.042959967,98.19372502,100.4875802,98.87559687,98.03654832
1.71E+12,128,128,4.201580173,5.010062241,5.407845881,4.047372388,-5.760529996,-14.87567231,-20.6362023,-5.045375626,98.23651672,100.6015462,98.93220164,98.08688498
1.71E+12,128,128,4.320085017,5.087999458,5.485436549,4.167076869,-5.761772318,-14.88083203,-20.64260435,-5.047799916,98.28028332,100.7169902,98.98949182,98.13841542
1.71E+12,128,128,4.436365114,5.161717202,5.558422771,4.284795642,-5.763039003,-14.88602863,-20.64906763,-5.050231757,98.32500652,100.833832,99.04742674,98.19111986
1.71E+12,128,128,4.550196357,5.231060331,5.626650163,4.400304426,-5.76432803,-14.89125989,-20.65558793,-5.052670081,98.37066617,100.9519888,99.10596436,98.24497625
1.71E+12,128,128,4.661356969,5.295882166,5.689973729,4.5133806,-5.76563738,-14.89652358,-20.66216096,-5.055113798,98.41724031,101.0713747,99.16506136,98.29996033
1.71E+12,128,128,4.76962816,5.356044948,5.74825832,4.623803857,-5.766965008,-14.90181737,-20.66878238,-5.057561809,98.46470515,101.1919015,99.22467322,98.35604565
1.71E+12,128,128,4.874794777,5.411420274,5.801379057,4.73135686,-5.768308865,-14.90713892,-20.67544779,-5.060013041,98.51303517,101.3134783,99.28475434,98.41320357
1.71E+12,128,128,4.976645954,5.4618895,5.849221728,4.835825882,-5.769666893,-14.91248579,-20.68215268,-5.062466451,98.56220308,101.4360121,99.34525808,98.47140335
1.71E+12,128,128,5.074975744,5.507344113,5.891683146,4.937001456,-5.771037001,-14.91785547,-20.68889247,-5.064921002,98.61217993,101.5594079,99.40613691,98.53061214
1.71E+12,128,128,5.169583747,5.547686077,5.928671478,5.034679001,-5.77241713,-14.92324541,-20.69566254,-5.067375655,98.66293508,101.6835687,99.46734248,98.59079505
1.71E+12,128,128,5.260275722,5.582828143,5.960106535,5.128659447,-5.773805278,-14.92865301,-20.70245829,-5.069829409,98.71443632,101.8083958,99.52882574,98.65191521
1.71E+12,128,128,5.346864182,5.612694125,5.985920027,5.218749841,-5.775199469,-14.93407561,-20.70927508,-5.072281321,98.7666499,101.9337893,99.59053703,98.71393383
1.71E+12,128,128,5.429168976,5.637219142,6.006055784,5.30476394,-5.776597735,-14.93951051,-20.71610825,-5.074730451,98.81954057,102.0596479,99.65242619,98.77681025
1.71E+12,128,128,5.507017838,5.656349826,6.020469928,5.386522786,-5.777998145,-14.94495495,-20.7229531,-5.077175881,98.87307168,102.1858692,99.71444268,98.84050204
1.71E+12,128,128,5.580246934,5.670044491,6.029131019,5.463855259,-5.779398789,-14.95040615,-20.72980494,-5.079616663,98.92720522,102.3123502,99.77653568,98.90496506
1.71E+12,128,128,5.648701363,5.678273265,6.032020152,5.536598609,-5.780797749,-14.95586128,-20.73665903,-5.082051881,98.98190192,102.4389872,99.8386542,98.97015353
1.71E+12,128,128,5.712235648,5.681018188,6.029131019,5.604598964,-5.782193117,-14.96131742,-20.74351054,-5.084480675,99.03712129,102.5656763,99.9007472,99.03602016
1.71E+12,128,128,5.77071419,5.678273265,6.020469928,5.667711811,-5.783582998,-14.96677165,-20.75035465,-5.086902211,99.09282174,102.6923134,99.96276369,99.10251621
1.71E+12,128,128,5.824011694,5.670044491,6.006055784,5.72580245,-5.784965533,-14.97222105,-20.75718658,-5.089315701,99.14896065,102.8187944,100.0246528,99.16959158
1.71E+12,128,128,5.872013569,5.656349826,5.985920027,5.77874642,-5.786338934,-14.9776627,-20.76400163,-5.091720345,99.20549446,102.9450157,100.0863641,99.23719496
1.71E+12,128,128,5.914616284,5.637219142,5.960106535,5.826429887,-5.787701503,-14.98309366,-20.77079516,-5.094115369,99.26237875,103.0708742,100.1478474,99.30527388
1.71E+12,128,128,5.9517277,5.612694125,5.928671478,5.868750008,-5.789051643,-14.98851096,-20.7775626,-5.096500055,99.31956835,103.1962677,100.209053,99.37377484
1.71E+12,128,128,5.983267362,5.582828143,5.891683146,5.905615256,-5.790387825,-14.9939116,-20.78429943,-5.098873721,99.37701741,103.3210949,100.2699318,99.44264346
1.71E+12,128,128,6.009166753,5.547686077,5.849221728,5.936945707,-5.791708527,-14.99929255,-20.79100108,-5.101235704,99.43467953,103.4452556,100.3304355,99.51182454
1.71E+12,128,128,6.029369515,5.507344113,5.801379057,5.962673302,-5.793012238,-15.00465073,-20.79766297,-5.103585364,99.49250786,103.5686514,100.3905167,99.58126219
1.71E+12,128,128,6.043831624,5.4618895,5.74825832,5.982742054,-5.794297494,-15.00998308,-20.80428057,-5.105922084,99.55045516,103.6911853,100.4501285,99.65089998
1.71E+12,128,128,6.052521536,5.411420274,5.689973729,5.997108232,-5.795562912,-15.01528657,-20.81084948,-5.108245278,99.60847395,103.8127621,100.5092255,99.72068105
1.71E+12,128,128,6.055420283,5.356044948,5.626650163,6.005740502,-5.796807207,-15.02055817,-20.81736538,-5.110554408,99.66651659,103.9332889,100.5677631,99.7905482
1.71E+12,128,128,6.052521536,5.295882166,5.558422771,6.008620021,-5.798029226,-15.02579487,-20.8238241,-5.112848978,99.72453538,104.0526748,100.625698,99.86044407
1.71E+12,128,128,6.043831624,5.231060331,5.485436549,6.005740502,-5.799227947,-15.03099369,-20.83022164,-5.115128519,99.78248268,104.1708315,100.6829882,99.93031122
1.71E+12,128,128,6.029369515,5.161717202,5.407845881,5.997108232,-5.800402466,-15.03615167,-20.83655413,-5.1173926,99.84031101,104.2876734,100.739593,100.0000923
1.71E+12,128,128,6.009166753,5.087999458,5.325814061,5.982742054,-5.801551969,-15.04126589,-20.84281786,-5.11964081,99.89797313,104.4031173,100.7954731,100.0697301
1.71E+12,128,128,5.983267362,5.010062241,5.239512781,5.962673302,-5.802675703,-15.04633347,-20.84900918,-5.121872765,99.95542219,104.5170834,100.8505909,100.1391677
1.71E+12,128,128,5.9517277,4.928068673,5.149121597,5.936945707,-5.803772965,-15.05135157,-20.85512453,-5.124088125,100.0126118,104.6294946,100.9049102,100.2083488
1.71E+12,128,128,5.914616284,4.842189348,5.054827372,5.905615256,-5.80484311,-15.05631735,-20.86116046,-5.126286552,100.0694961,104.7402774,100.9583965,100.2772174
1.71E+12,128,128,5.872013569,4.752601802,4.956823705,5.868750008,-5.805885595,-15.06122808,-20.86711368,-5.128467728,100.1260299,104.8493613,101.0110171,100.3457184
1.71E+12,128,128,5.824011694,4.659489969,4.85531033,5.826429887,-5.806899982,-15.0660811,-20.87298108,-5.130631369,100.1821688,104.9566797,101.062741,100.4137973
1.71E+12,128,128,5.77071419,4.563043615,4.75049251,5.77874642,-5.807885934,-15.07087384,-20.87875977,-5.132777257,100.2378693,105.0621691,101.1135389,100.4814007
1.71E+12,128,128,5.712235648,4.463457757,4.642580413,5.72580245,-5.808843215,-15.07560381,-20.88444702,-5.134905224,100.2930886,105.1657702,101.1633836,100.5484761
1.71E+12,128,128,5.648701363,4.360932073,4.531788479,5.667711811,-5.809771672,-15.08026857,-20.89004025,-5.137015084,100.3477853,105.2674271,101.2122496,100.6149721
1.71E+12,128,128,5.580246934,4.255670296,4.41833477,5.604598964,-5.810671221,-15.08486574,-20.89553696,-5.139106678,100.4019189,105.3670879,101.2601133,100.6808387
1.71E+12,128,128,5.507017838,4.147879609,4.30244033,5.536598609,-5.811541829,-15.08939298,-20.90093481,-5.141179906,100.45545,105.4647048,101.3069533,100.7460272
1.71E+12,128,128,5.429168976,4.037770017,4.184328521,5.463855259,-5.812383519,-15.09384804,-20.90623156,-5.143234631,100.5083406,105.5602337,101.3527499,100.8104902
1.71E+12,128,128,5.346864182,3.925553737,4.064224375,5.386522786,-5.813196388,-15.09822878,-20.91142517,-5.145270742,100.5605542,105.6536348,101.3974856,100.874182
1.71E+12,128,128,5.260275722,3.811444567,3.942353935,5.30476394,-5.813980618,-15.10253318,-20.9165138,-5.147288222,100.6120555,105.744872,101.4411447,100.9370584
1.71E+12,128,128,5.169583747,3.695657267,3.818943603,5.218749841,-5.814736494,-15.10675935,-20.92149584,-5.149287044,100.6628106,105.8339136,101.4837137,100.9990771
1.71E+12,128,128,5.074975744,3.578406939,3.694219498,5.128659447,-5.815464413,-15.11090553,-20.92636994,-5.151267177,100.7127875,105.9207318,101.5251808,101.0601972
1.71E+12,128,128,4.976645954,3.459908414,3.568406812,5.034679001,-5.816164863,-15.11497008,-20.93113494,-5.153228676,100.7619554,106.005303,101.5655366,101.1203801
1.71E+12,128,128,4.874794777,3.340375645,3.441729186,4.937001456,-5.816838383,-15.11895144,-20.93578983,-5.155171654,100.8102854,106.0876076,101.6047734,101.1795889
1.71E+12,128,128,4.76962816,3.220021109,3.314408094,4.835825882,-5.817485548,-15.12284815,-20.9403337,-5.157096213,100.8577502,106.1676299,101.6428854,101.2377887
1.71E+12,128,128,4.661356969,3.099055225,3.18666224,4.73135686,-5.81810696,-15.12665882,-20.94476579,-5.159002463,100.9043244,106.2453584,101.679869,101.2949466
1.71E+12,128,128,4.550196357,2.977685781,3.058706974,4.623803857,-5.81870327,-15.13038219,-20.94908546,-5.160890583,100.949984,106.3207854,101.7157222,101.3510319
1.71E+12,128,128,4.436365114,2.856117378,2.930753728,4.5133806,-5.819275185,-15.13401709,-20.95329228,-5.162760752,100.9947072,106.3939072,101.7504452,101.406016
1.71E+12,128,128,4.320085017,2.734550894,2.803009471,4.400304426,-5.819823505,-15.13756253,-20.95738603,-5.164613162,101.0384738,106.4647238,101.7840397,101.4598724
1.71E+12,128,128,4.201580173,2.613182968,2.675676186,4.284795642,-5.820349117,-15.14101767,-20.96136678,-5.166448042,101.0812655,106.5332389,101.8165094,101.5125768
1.71E+12,128,128,4.081076362,2.4922055,2.548950374,4.167076869,-5.82085296,-15.14438182,-20.96523478,-5.168265577,101.1230659,106.59946,101.8478597,101.5641073
1.71E+12,128,128,3.958800379,2.371805183,2.423022579,4.047372388,-5.821336009,-15.14765441,-20.96899042,-5.170065962,101.1638603,106.663398,101.8780975,101.6144439
1.71E+12,128,128,3.834979381,2.252163051,2.298076949,3.92590749,-5.821799251,-15.15083496,-20.97263422,-5.171849461,101.2036361,106.7250673,101.9072316,101.6635692
1.71E+12,128,128,3.709840237,2.133454058,2.174290816,3.802907826,-5.822243674,-15.15392312,-20.9761668,-5.173616326,101.2423824,106.7844856,101.9352723,101.7114679
1.71E+12,128,128,3.58360889,2.015846687,2.051834317,3.678598759,-5.822670277,-15.1569186,-20.97958888,-5.175366785,101.2800903,106.8416737,101.9622311,101.7581268
1.71E+12,128,128,3.456509725,1.899502581,1.930870037,3.553204734,-5.82308007,-15.15982125,-20.98290132,-5.17710109,101.3167525,106.8966556,101.9881215,101.8035352
1.71E+12,128,128,3.328764952,1.78457621,1.81155269,3.426948648,-5.823474043,-15.16263105,-20.98610509,-5.178819501,101.3523639,106.9494583,102.0129578,101.8476845
1.71E+12,128,128,3.200594004,1.671214566,1.694028834,3.300051236,-5.823853181,-15.16534813,-20.98920131,-5.180522278,101.3869208,107.0001113,102.0367559,101.8905682
