Shimmer_86BB_TimestampSync_Unix_CAL,Shimmer_86BB_GSR_Range_LPF_CAL,Shimmer_86BB_GSR_Skin_Conductance_LPF_CAL,Shimmer_86BB_GSR_Skin_Resistance_LPF_CAL,Shimmer_86BB_PPG_A13_LPF_CAL,Shimmer_86BB_PPG_IBI_LPF_CAL,Shimmer_86BB_PPGtoHR_LPF_CAL
1.71E+12,3,0.009102009,109865.8537,2932.600733,-1,-1
1.71E+12,3,0.009102009,109865.8537,2932.600733,-1,-1
1.71E+12,3,0.009102009,109865.8554,2932.600732,-1,-1
1.71E+12,3,0.009102008,109865.8628,2932.600732,-1,-1
1.71E+12,3,0.009102007,109865.8782,2932.60073,-1,-1
1.71E+12,3,0.009102005,109865.9044,2932.600728,-1,-1
1.71E+12,3,0.009102002,109865.9443,2932.600726,-1,-1
1.71E+12,3,0.009101997,109866.0012,2932.60072,-1,-1
1.71E+12,3,0.009101991,109866.0786,2932.60071,-1,-1
1.71E+12,3,0.009101984,109866.177,2932.600693,-1,-1
1.71E+12,3,0.009101974,109866.2966,2932.600669,-1,-1
1.71E+12,3,0.009101963,109866.4394,2932.600636,-1,-1
1.71E+12,3,0.00910195,109866.6073,2932.600594,-1,-1
1.71E+12,3,0.009101935,109866.8043,2932.600543,-1,-1
1.71E+12,3,0.009101917,109867.0345,2932.60048,-1,-1
1.71E+12,3,0.009101896,109867.3026,2932.600404,-1,-1
1.71E+12,3,0.009101871,109867.6152,2932.600312,-1,-1
1.71E+12,3,0.009101843,109867.978,2932.600199,-1,-1
1.71E+12,3,0.009101811,109868.3949,2932.600064,-1,-1
1.71E+12,3,0.009101774,109868.8721,2932.599904,-1,-1
1.71E+12,3,0.009101731,109869.416,2932.599717,-1,-1
1.71E+12,3,0.009101683,109870.0317,2932.599502,-1,-1
1.71E+12,3,0.009101629,109870.7246,2932.599254,-1,-1
1.71E+12,3,0.009101569,109871.5002,2932.598971,-1,-1
1.71E+12,3,0.009101502,109872.3641,2932.598649,-1,-1
1.71E+12,3,0.009101427,109873.3207,2932.598283,-1,-1
1.71E+12,3,0.009101345,109874.3742,2932.597867,-1,-1
1.71E+12,3,0.009101256,109875.5305,2932.597398,-1,-1
1.71E+12,3,0.009101157,109876.7975,2932.596873,-1,-1
1.71E+12,3,0.00910105,109878.1833,2932.596285,-1,-1
1.71E+12,3,0.009100932,109879.6946,2932.595632,-1,-1
1.71E+12,3,0.009100805,109881.3383,2932.594908,-1,-1
1.71E+12,3,0.009100666,109883.1212,2932.594106,-1,-1
1.71E+12,3,0.009100517,109885.0504,2932.593221,-1,-1
1.71E+12,3,0.009100355,109887.1328,2932.592245,-1,-1
1.71E+12,3,0.009100181,109889.3755,2932.591173,-1,-1
1.71E+12,3,0.009099994,109891.7871,2932.590001,-1,-1
1.71E+12,3,0.009099793,109894.3768,2932.58872,-1,-1
1.71E+12,3,0.009099578,109897.1516,2932.587326,-1,-1
1.71E+12,3,0.009099349,109900.1173,2932.585811,-1,-1
1.71E+12,3,0.009099104,109903.279,2932.584168,-1,-1
1.71E+12,3,0.009098843,109906.6432,2932.582386,-1,-1
1.71E+12,3,0.009098567,109910.216,2932.58046,-1,-1
1.71E+12,3,0.009098274,109914.0034,2932.578381,-1,-1
1.71E+12,3,0.009097964,109918.0095,2932.576143,-1,-1
1.71E+12,3,0.009097637,109922.2361,2932.573738,-1,-1
1.71E+12,3,0.009097293,109926.6857,2932.571158,-1,-1
1.71E+12,3,0.009096932,109931.362,2932.568397,-1,-1
1.71E+12,3,0.009096553,109936.268,2932.565443,-1,-1
1.71E+12,3,0.009096157,109941.4062,2932.562287,-1,-1
1.71E+12,3,0.009095742,109946.7786,2932.558923,-1,-1
1.71E+12,3,0.00909531,109952.3862,2932.555341,-1,-1
1.71E+12,3,0.00909486,109958.2297,2932.551537,-1,-1
1.71E+12,3,0.009094391,109964.3086,2932.547501,-1,-1
1.71E+12,3,0.009093906,109970.6221,2932.543227,-1,-1
1.71E+12,3,0.009093402,109977.1682,2932.538705,-1,-1
1.71E+12,3,0.009092881,109983.9441,2932.533928,-1,-1
1.71E+12,3,0.009092343,109990.9464,2932.528887,-1,-1
1.71E+12,3,0.009091788,109998.1705,2932.523574,-1,-1
1.71E+12,3,0.009091217,110005.6108,2932.517983,-1,-1
1.71E+12,3,0.009090631,110013.2612,2932.512109,-1,-1
1.71E+12,3,0.009090029,110021.1141,2932.505946,-1,-1
1.71E+12,3,0.009089413,110029.163,2932.499489,-1,-1
1.71E+12,3,0.009088782,110037.4008,2932.492733,-1,-1
1.71E+12,3,0.009088138,110045.8192,2932.485671,-1,-1
1.71E+12,3,0.009087482,110054.4114,2932.478297,-1,-1
1.71E+12,3,0.009086813,110063.1681,2932.470607,-1,-1
1.71E+12,3,0.009086133,110072.0793,2932.462597,-1,-1
1.71E+12,3,0.009085443,110081.1345,2932.454266,-1,-1
1.71E+12,3,0.009084744,110090.3207,2932.44561,-1,-1
1.71E+12,3,0.009084036,110099.6242,2932.43663,-1,-1
1.71E+12,3,0.009083321,110109.0304,2932.427324,-1,-1
1.71E+12,3,0.0090826,110118.5262,2932.417691,-1,-1
1.71E+12,3,0.009081874,110128.0976,2932.407732,-1,-1
1.71E+12,3,0.009081144,110137.729,2932.397445,-1,-1
1.71E+12,3,0.009080412,110147.4038,2932.38683,-1,-1
1.71E+12,3,0.009079678,110157.1054,2932.375889,-1,-1
1.71E+12,3,0.009078945,110166.8165,2932.364623,-1,-1
1.71E+12,3,0.009078213,110176.5197,2932.353038,-1,-1
1.71E+12,3,0.009077485,110186.1974,2932.341137,-1,-1
1.71E+12,3,0.00907676,110195.8317,2932.328927,-1,-1
1.71E+12,3,0.009076041,110205.4046,2932.31641,-1,-1
1.71E+12,3,0.00907533,110214.8984,2932.303591,-1,-1
1.71E+12,3,0.009074627,110224.2951,2932.290477,-1,-1
1.71E+12,3,0.009073933,110233.577,2932.277076,-1,-1
1.71E+12,3,0.009073251,110242.7267,2932.263396,-1,-1
1.71E+12,3,0.009072582,110251.7269,2932.249447,-1,-1
1.71E+12,3,0.009071926,110260.5592,2932.235239,-1,-1
1.71E+12,3,0.009071286,110269.2053,2932.220781,-1,-1
1.71E+12,3,0.009070662,110277.6472,2932.206083,-1,-1
1.71E+12,3,0.009070057,110285.8657,2932.191153,-1,-1
1.71E+12,3,0.009069471,110293.8403,2932.176004,-1,-1
1.71E+12,3,0.009068907,110301.5505,2932.160648,-1,-1
1.71E+12,3,0.009068366,110308.9773,2932.145099,-1,-1
1.71E+12,3,0.009067849,110316.1021,2932.129371,-1,-1
1.71E+12,3,0.009067358,110322.9067,2932.113479,-1,-1
1.71E+12,3,0.009066895,110329.3729,2932.097438,-1,-1
1.71E+12,3,0.00906646,110335.4831,2932.081262,-1,-1
1.71E+12,3,0.009066055,110341.2214,2932.064965,-1,-1
1.71E+12,3,0.009065681,110346.5726,2932.048562,-1,-1
1.71E+12,3,0.009065339,110351.522,2932.032066,-1,-1
1.71E+12,3,0.009065031,110356.0553,2932.015494,-1,-1
1.71E+12,3,0.009064757,110360.1587,2931.998863,-1,-1
1.71E+12,3,0.009064518,110363.819,2931.982189,-1,-1
1.71E+12,3,0.009064316,110367.0235,2931.965488,-1,-1
1.71E+12,3,0.009064152,110369.7613,2931.948777,-1,-1
1.71E+12,3,0.009064025,110372.0224,2931.932073,-1,-1
1.71E+12,3,0.009063938,110373.7959,2931.915392,-1,-1
1.71E+12,3,0.009063891,110375.0693,2931.898747,-1,-1
1.71E+12,3,0.009063884,110375.8322,2931.882155,-1,-1
1.71E+12,3,0.009063919,110376.0761,2931.865632,-1,-1
1.71E+12,3,0.009063996,110375.793,2931.849194,-1,-1
1.71E+12,3,0.009064117,110374.9756,2931.832857,-1,-1
1.71E+12,3,0.00906428,110373.6151,2931.816638,-1,-1
1.71E+12,3,0.009064488,110371.7033,2931.800551,-1,-1
1.71E+12,3,0.009064741,110369.2322,2931.784611,-1,-1
1.71E+12,3,0.00906504,110366.1937,2931.76883,-1,-1
1.71E+12,3,0.009065384,110362.582,2931.753221,-1,-1
1.71E+12,3,0.009065776,110358.3913,2931.737799,-1,-1
1.71E+12,3,0.009066215,110353.6148,2931.722576,-1,-1
1.71E+12,3,0.009066701,110348.2457,2931.707566,-1,-1
1.71E+12,3,0.009067237,110342.2774,2931.69278,-1,-1
1.71E+12,3,0.009067821,110335.7034,2931.67823,-1,-1
1.71E+12,3,0.009068455,110328.5174,2931.663927,-1,-1
1.71E+12,3,0.00906914,110320.7131,2931.64988,-1,-1
1.71E+12,3,0.009069875,110312.286,2931.636098,-1,-1
1.71E+12,3,0.009070662,110303.2303,2931.622591,-1,-1
1.71E+12,3,0.0090715,110293.5387,2931.609368,-1,-1
1.71E+12,3,0.009072392,110283.2038,2931.596436,-1,-1
1.71E+12,3,0.009073337,110272.2197,2931.583802,-1,-1
1.71E+12,3,0.009074335,110260.5808,2931.571471,-1,-1
1.71E+12,3,0.009075389,110248.2814,2931.559447,-1,-1
1.71E+12,3,0.009076497,110235.3163,2931.547737,-1,-1
1.71E+12,3,0.009077661,110221.6785,2931.536344,-1,-1
1.71E+12,3,0.009078882,110207.3613,2931.525273,-1,-1
1.71E+12,3,0.009080159,110192.3594,2931.514526,-1,-1
1.71E+12,3,0.009081494,110176.6696,2931.504106,-1,-1
1.71E+12,3,0.009082886,110160.2891,2931.494013,-1,-1
1.71E+12,3,0.009084336,110143.2156,2931.484248,-1,-1
1.71E+12,3,0.009085845,110125.4474,2931.47481,-1,-1
1.71E+12,3,0.009087411,110106.9834,2931.465701,-1,-1
1.71E+12,3,0.009089036,110087.8232,2931.456919,-1,-1
1.71E+12,3,0.00909072,110067.9656,2931.448464,-1,-1
1.71E+12,3,0.009092463,110047.4081,2931.440332,-1,-1
1.71E+12,3,0.009094265,110026.149,2931.432521,-1,-1
1.71E+12,3,0.009096126,110004.1884,2931.425025,-1,-1
1.71E+12,3,0.009098046,109981.5291,2931.417843,-1,-1
1.71E+12,3,0.009100025,109958.173,2931.410971,-1,-1
1.71E+12,3,0.009102062,109934.123,2931.404405,-1,-1
1.71E+12,3,0.009104158,109909.3846,2931.398141,-1,-1
1.71E+12,3,0.009106312,109883.9644,2931.392175,-1,-1
1.71E+12,3,0.009108523,109857.8684,2931.386498,-1,-1
1.71E+12,3,0.009110791,109831.1041,2931.381106,-1,-1
1.71E+12,3,0.009113115,109803.6797,2931.375991,-1,-1
1.71E+12,3,0.009115495,109775.6048,2931.371148,-1,-1
1.71E+12,3,0.009117928,109746.8902,2931.366571,-1,-1
1.71E+12,3,0.009120416,109717.548,2931.362255,-1,-1
1.71E+12,3,0.009122955,109687.5913,2931.358193,-1,-1
1.71E+12,3,0.009125546,109657.0349,2931.354376,-1,-1
1.71E+12,3,0.009128186,109625.8946,2931.350798,-1,-1
1.71E+12,3,0.009130874,109594.1878,2931.34745,-1,-1
1.71E+12,3,0.009133609,109561.9345,2931.344325,-1,-1
1.71E+12,3,0.009136389,109529.1568,2931.341417,-1,-1
1.71E+12,3,0.009139212,109495.8763,2931.338718,-1,-1
1.71E+12,3,0.009142075,109462.1161,2931.336221,-1,-1
1.71E+12,3,0.009144977,109427.9022,2931.333915,-1,-1
1.71E+12,3,0.009147915,109393.2607,2931.331795,-1,-1
1.71E+12,3,0.009150887,109358.2173,2931.329852,-1,-1
1.71E+12,3,0.009153892,109322.7986,2931.328082,-1,-1
1.71E+12,3,0.009156925,109287.0324,2931.326477,-1,-1
1.71E+12,3,0.009159986,109250.9475,2931.325031,-1,-1
1.71E+12,3,0.009163071,109214.5736,2931.323736,-1,-1
1.71E+12,3,0.009166178,109177.9412,2931.322585,-1,-1
1.71E+12,3,0.009169304,109141.0814,2931.321571,-1,-1
1.71E+12,3,0.009172447,109104.0279,2931.320689,-1,-1
1.71E+12,3,0.009175602,109066.815,2931.319933,-1,-1
1.71E+12,3,0.009178768,109029.4777,2931.319299,-1,-1
1.71E+12,3,0.009181942,108992.0515,2931.318779,-1,-1
1.71E+12,3,0.009185119,108954.5708,2931.318367,-1,-1
1.71E+12,3,0.009188298,108917.0702,2931.318057,-1,-1
1.71E+12,3,0.009191475,108879.586,2931.317843,-1,-1
1.71E+12,3,0.009194647,108842.1561,2931.317721,-1,-1
1.71E+12,3,0.009197811,108804.8186,2931.317688,-1,-1
1.71E+12,3,0.009200963,108767.612,2931.317739,-1,-1
1.71E+12,3,0.0092041,108730.5762,2931.317869,-1,-1
1.71E+12,3,0.009207219,108693.7513,2931.318073,-1,-1
1.71E+12,3,0.009210333,108657.1462,2931.318346,-1,-1
1.71E+12,3,0.009213489,108620.7331,2931.318686,-1,-1
1.71E+12,3,0.009216761,108584.4737,2931.319087,-1,-1
1.71E+12,3,0.00922024,108548.3201,2931.319549,-1,-1
1.71E+12,3,0.009224039,108512.2146,2931.320067,-1,-1
1.71E+12,3,0.009228285,108476.0892,2931.320639,-1,-1
1.71E+12,3,0.009233123,108439.8649,2931.321261,-1,-1
1.71E+12,3,0.009238723,108403.4512,2931.32193,-1,-1
1.71E+12,3,0.009245281,108366.7448,2931.32264,-0.999744568,-0.999976499
1.71E+12,3,0.009253021,108329.6296,2931.323389,-0.998937657,-0.999878758
1.71E+12,3,0.009262209,108291.9753,2931.324176,-0.997516025,-0.99965022
1.71E+12,3,0.009273144,108253.6371,2931.324998,-0.995413051,-0.999228197
1.71E+12,3,0.009286165,108214.4548,2931.325854,-0.992558418,-0.998543533
1.71E+12,3,0.00930164,108174.2523,2931.326743,-0.988877798,-0.997520234
1.71E+12,3,0.009319974,108132.8369,2931.327661,-0.98429257,-0.99607507
1.71E+12,3,0.009341607,108089.9982,2931.328605,-0.978719567,-0.994117162
1.71E+12,3,0.009367019,108045.5065,2931.329572,-0.972070848,-0.991547537
1.71E+12,3,0.009396732,107999.1116,2931.33056,-0.964253513,-0.988258678
1.71E+12,3,0.009431311,107950.5461,2931.331567,-0.955169554,-0.984134048
1.71E+12,3,0.009471361,107899.5229,2931.332591,-0.944715749,-0.979047614
1.71E+12,3,0.009517533,107845.7346,2931.33363,-0.932783599,-0.972863362
1.71E+12,3,0.009570522,107788.8528,2931.334686,-0.919259322,-0.965434808
1.71E+12,3,0.009631068,107728.5285,2931.335756,-0.904023889,-0.956604515
1.71E+12,3,0.00969996,107664.394,2931.336837,-0.886953116,-0.946203625
1.71E+12,3,0.009778035,107596.0597,2931.337928,-0.867917816,-0.934051389
1.71E+12,3,0.009866181,107523.1123,2931.339027,-0.846784,-0.919954735
1.71E+12,3,0.009965336,107445.1167,2931.340132,-0.82341314,-0.903707842
1.71E+12,3,0.010076491,107361.6139,2931.341243,-0.797662491,-0.885091758
1.71E+12,3,0.01020069,107272.1237,2931.342356,-0.769385468,-0.863874044
1.71E+12,3,0.010339031,107176.1445,2931.343471,-0.738432083,-0.83980846
1.71E+12,3,0.010492666,107073.1521,2931.344585,-0.704649438,-0.8126347
1.71E+12,3,0.010662799,106962.6036,2931.345699,-0.667882282,-0.782078174
1.71E+12,3,0.010850687,106843.9383,2931.346813,-0.627973608,-0.747849846
1.71E+12,3,0.011057644,106716.5743,2931.347924,-0.58476532,-0.709646136
1.71E+12,3,0.011285031,106579.9118,2931.349031,-0.538098937,-0.667148879
1.71E+12,3,0.011534264,106433.3354,2931.350131,-0.487816352,-0.620025368
1.71E+12,3,0.011806806,106276.2137,2931.35122,-0.433760634,-0.567928455
1.71E+12,3,0.012104167,106107.9004,2931.352296,-0.37577687,-0.51049674
1.71E+12,3,0.012427904,105927.7356,2931.353359,-0.313713044,-0.447354836
1.71E+12,3,0.012779617,105735.0494,2931.35441,-0.24742095,-0.37811372
1.71E+12,3,0.013160949,105529.1611,2931.355449,-0.176757128,-0.302371173
1.71E+12,3,0.013573578,105309.38,2931.356472,-0.101583832,-0.219712298
1.71E+12,3,0.014019219,105075.0075,2931.357476,-0.021770005,-0.129710143
1.71E+12,3,0.014499617,104825.3406,2931.358459,0.062807727,-0.031926405
1.71E+12,3,0.015016541,104559.6756,2931.35942,0.152264061,0.074087772
1.71E+12,3,0.015571786,104277.3089,2931.360358,0.246704012,0.188790907
1.71E+12,3,0.016167163,103977.5387,2931.361274,0.346221928,0.312650198
1.71E+12,3,0.016804492,103659.668,2931.362168,0.450900507,0.446140453
1.71E+12,3,0.017485603,103323.0067,2931.363037,0.560809839,0.589742928
1.71E+12,3,0.018212326,102966.8742,2931.363879,0.676006465,0.743944081
1.71E+12,3,0.018986486,102590.6005,2931.36469,0.796532475,0.909234242
1.71E+12,3,0.0198099,102193.5304,2931.365469,0.92241464,1.086106205
1.71E+12,3,0.020684368,101775.0281,2931.366214,1.053663589,1.275053741
1.71E+12,3,0.021611669,101334.4792,2931.366926,1.190273033,1.476570044
1.71E+12,3,0.022593555,100871.2919,2931.367606,1.332219047,1.691146105
1.71E+12,3,0.023631739,100384.8981,2931.368255,1.479459415,1.919269032
1.71E+12,3,0.024727896,99874.75822,2931.36887,1.631933036,2.16142031
1.71E+12,3,0.025883649,99340.36318,2931.369448,1.789559408,2.41807402
1.71E+12,3,0.027100569,98781.23896,2931.369989,1.952238188,2.689695007
1.71E+12,3,0.028380164,98196.94872,2931.370491,2.119848828,2.97673703
1.71E+12,3,0.02972387,97587.09232,2931.370954,2.292250303,3.279640869
1.71E+12,3,0.031133052,96951.30892,2931.371379,2.469280926,3.598832428
1.71E+12,3,0.032608993,96289.28092,2931.371767,2.65075825,3.934720829
1.71E+12,3,0.03415289,95600.73614,2931.372116,2.836479076,4.287672992
1.71E+12,3,0.035765846,94885.45,2931.372425,3.026219549,4.658008008
1.71E+12,3,0.037448861,94143.24746,2931.372693,3.219735355,5.046016669
1.71E+12,3,0.039202833,93374.00486,2931.372921,3.416762024,5.451959305
1.71E+12,3,0.041028541,92577.65163,2931.373107,3.617015323,5.876063626
1.71E+12,3,0.04292665,91754.17182,2931.373254,3.820191764,6.318522582
1.71E+12,3,0.044897702,90903.60541,2931.373362,4.025969198,6.779492248
1.71E+12,3,0.046942111,90026.04959,2931.373431,4.234007522,7.259089757
1.71E+12,3,0.049060157,89121.65969,2931.37346,4.443949474,7.757391281
1.71E+12,3,0.051251981,88190.65003,2931.37345,4.655421527,8.27443008
1.71E+12,3,0.053517583,87233.29453,2931.373399,4.868034879,8.810194622
1.71E+12,3,0.055856818,86249.92711,2931.373309,5.081386529,9.364626802
1.71E+12,3,0.058269391,85240.94187,2931.373181,5.295060437,9.937620253
1.71E+12,3,0.060754854,84206.79149,2931.373014,5.508628774,10.52901878
1.71E+12,3,0.063312609,83147.98883,2931.372807,5.721653238,11.13861491
1.71E+12,3,0.065941898,82065.10638,2931.372563,5.933686447,11.76614857
1.71E+12,3,0.068641814,80958.77404,2931.372284,6.144273398,12.41130597
1.71E+12,3,0.071411294,79829.6816,2931.371972,6.352952982,13.07371854
1.71E+12,3,0.074249121,78678.57577,2931.371626,6.559259555,13.75296212
1.71E+12,3,0.077153927,77506.25894,2931.371248,6.762724551,14.44855633
1.71E+12,3,0.08012419,76313.58921,2931.370837,6.962878133,15.15996407
1.71E+12,3,0.083158238,75101.4768,2931.370394,7.15925088,15.88659123
1.71E+12,3,0.086254251,73870.88222,2931.369917,7.351375493,16.62778665
1.71E+12,3,0.089410262,72622.81242,2931.36941,7.538788513,17.38284227
1.71E+12,3,0.092624164,71358.32042,2931.368875,7.72103205,18.15099342
1.71E+12,3,0.095893715,70078.50426,2931.368315,7.897655509,18.93141945
1.71E+12,3,0.099216541,68784.50255,2931.367732,8.068217305,19.72324449
1.71E+12,3,0.102590145,67477.49163,2931.367128,8.232286562,20.52553849
1.71E+12,3,0.106011911,66158.68264,2931.366502,8.389444778,21.33731844
1.71E+12,3,0.109479108,64829.31832,2931.365855,8.539287468,22.15754988
1.71E+12,3,0.112988902,63490.66985,2931.365188,8.68142575,22.98514858
1.71E+12,3,0.116538357,62144.03342,2931.364503,8.815487887,23.81898247
1.71E+12,3,0.120124448,60790.72681,2931.363803,8.94112077,24.65787379
1.71E+12,3,0.123744066,59432.08581,2931.363091,9.057991333,25.50060148
1.71E+12,3,0.127394027,58069.46063,2931.362366,9.165787896,26.34590372
1.71E+12,3,0.131071079,56704.21222,2931.361628,9.264221424,27.19248076
1.71E+12,3,0.134771913,55337.70852,2931.360878,9.353026704,28.0389979
1.71E+12,3,0.138493173,53971.32076,2931.360117,9.431963426,28.88408867
1.71E+12,3,0.142231458,52606.42117,2931.359347,9.500817167,29.72635818
1.71E+12,3,0.145983341,51244.3775,2931.358571,9.559400271,30.56438666
1.71E+12,3,0.14974537,49886.54941,2931.357792,9.607552621,31.39673319
1.71E+12,3,0.153514083,48534.28617,2931.35701,9.645142299,32.22193949
1.71E+12,3,0.157286014,47188.92272,2931.356227,9.672066133,33.0385339
1.71E+12,3,0.161057706,45851.7746,2931.355441,9.68825012,33.84503553
1.71E+12,3,0.164825713,44524.13317,2931.354654,9.693649736,34.63995837
1.71E+12,3,0.168586614,43207.26372,2931.353867,9.68825012,35.42181566
1.71E+12,3,0.172337016,41902.40216,2931.353081,9.672066133,36.18912417
1.71E+12,3,0.17607356,40610.75195,2931.352296,9.645142299,36.94040869
1.71E+12,3,0.179792926,39333.48103,2931.351514,9.607552621,37.67420642
1.71E+12,3,0.183491842,38071.71748,2931.350734,9.559400271,38.38907145
1.71E+12,3,0.187167094,36826.54845,2931.349959,9.500817167,39.08357926
1.71E+12,3,0.190815535,35599.01741,2931.349192,9.431963426,39.75633114
1.71E+12,3,0.194434092,34390.12189,2931.348433,9.353026704,40.40595862
1.71E+12,3,0.198019775,33200.8111,2931.347682,9.264221424,41.03112785
1.71E+12,3,0.201569676,32031.98403,2931.346941,9.165787896,41.63054384
1.71E+12,3,0.20508098,30884.48756,2931.346208,9.057991333,42.20295474
1.71E+12,3,0.208550967,29759.11342,2931.345485,8.94112077,42.74715585
1.71E+12,3,0.211977018,28656.59836,2931.344769,8.815487887,43.26199366
1.71E+12,3,0.215356622,27577.62438,2931.344064,8.68142575,43.7463696
1.71E+12,3,0.218687377,26522.81748,2931.34337,8.539287468,44.19924377
1.71E+12,3,0.221966997,25492.74381,2931.342688,8.389444778,44.61963838
1.71E+12,3,0.225193313,24487.90935,2931.342018,8.232286562,45.00664106
1.71E+12,3,0.228364272,23508.76114,2931.341362,8.068217305,45.35940793
1.71E+12,3,0.231477945,22555.68721,2931.340716,7.897655509,45.67716652
1.71E+12,3,0.234532521,21629.01808,2931.340079,7.72103205,45.95921835
1.71E+12,3,0.23752631,20729.02546,2931.339452,7.538788513,46.20494132
1.71E+12,3,0.240457731,19855.92306,2931.338835,7.351375493,46.41379189
1.71E+12,3,0.243325298,19009.86825,2931.338232,7.15925088,46.58530693
1.71E+12,3,0.246127599,18190.96419,2931.337642,6.962878133,46.7191053
1.71E+12,3,0.248863311,17399.26647,2931.337065,6.762724551,46.81488918
1.71E+12,3,0.2515312,16634.79038,2931.336501,6.559259555,46.8724451
1.71E+12,3,0.254130124,15897.51378,2931.335949,6.352952982,46.89164468
1.71E+12,3,0.256659036,15187.38067,2931.335408,6.144273398,46.8724451
1.71E+12,3,0.259116977,14504.30093,2931.334875,5.933686447,46.81488918
1.71E+12,3,0.261503071,13848.15032,2931.334353,5.721653238,46.7191053
1.71E+12,3,0.263816526,13218.77092,2931.333843,5.508628774,46.58530693
1.71E+12,3,0.266056624,12615.96956,2931.333345,5.295060437,46.41379189
1.71E+12,3,0.268222717,12039.52549,2931.332859,5.081386529,46.20494132
1.71E+12,3,0.27031422,11489.19156,2931.332386,4.868034879,45.95921835
1.71E+12,3,0.27233061,10964.69549,2931.331925,4.655421527,45.67716652
1.71E+12,3,0.274271413,10465.74341,2931.331475,4.443949474,45.35940793
1.71E+12,3,0.276136205,9992.023198,2931.331035,4.234007522,45.00664106
1.71E+12,3,0.277924601,9543.205801,2931.330607,4.025969198,44.61963838
1.71E+12,3,0.279636249,9118.950132,2931.33019,3.820191764,44.19924377
1.71E+12,3,0.281270829,8718.909638,2931.329785,3.617015323,43.7463696
1.71E+12,3,0.282828041,8342.732356,2931.329391,3.416762024,43.26199366
1.71E+12,3,0.284307601,7990.060949,2931.329007,3.219735355,42.74715585
1.71E+12,3,0.28570924,7660.537666,2931.328635,3.026219549,42.20295474
1.71E+12,3,0.287032691,7353.81101,2931.328274,2.836479076,41.63054384
1.71E+12,3,0.288277691,7069.537179,2931.327927,2.65075825,41.03112785
1.71E+12,3,0.28944397,6807.383062,2931.327593,2.469280926,40.40595862
1.71E+12,3,0.290531253,6567.02911,2931.327273,2.292250303,39.75633114
1.71E+12,3,0.29153925,6348.172083,2931.326967,2.119848828,39.08357926
1.71E+12,3,0.292467656,6150.52913,2931.326673,1.952238188,38.38907145
1.71E+12,3,0.293316149,5973.839988,2931.326393,1.789559408,37.67420642
1.71E+12,3,0.294084382,5817.867658,2931.32613,1.631933036,36.94040869
1.71E+12,3,0.294771987,5682.397233,2931.325885,1.479459415,36.18912417
1.71E+12,3,0.295378572,5567.239513,2931.32566,1.332219047,35.42181566
1.71E+12,3,0.295903716,5472.237629,2931.325454,1.190273033,34.63995837
1.71E+12,3,0.296346972,5397.265122,2931.325268,1.053663589,33.84503553
1.71E+12,3,0.296707868,5342.225781,2931.3251,0.92241464,33.0385339
1.71E+12,3,0.296985908,5307.039312,2931.324954,0.796532475,32.22193949
1.71E+12,3,0.297180581,5291.628234,2931.324834,0.676006465,31.39673319
1.71E+12,3,0.29729137,5295.928831,2931.324741,0.560809839,30.56438666
1.71E+12,3,0.297317752,5319.900732,2931.324676,0.450900507,29.72635818
1.71E+12,3,0.29725921,5363.526097,2931.324639,0.346221928,28.88408867
1.71E+12,3,0.297115231,5426.81025,2931.324631,0.246704012,28.0389979
1.71E+12,3,0.296885308,5509.781338,2931.324655,0.152264061,27.19248076
1.71E+12,3,0.296568935,5612.489363,2931.324712,0.062807727,26.34590372
1.71E+12,3,0.296165621,5735.004183,2931.324805,-0.021770005,25.50060148
1.71E+12,3,0.295674896,5877.413429,2931.324934,-0.101583832,24.65787379
1.71E+12,3,0.295096324,6039.82022,2931.325102,-0.176757128,23.81898247
1.71E+12,3,0.294429508,6222.339344,2931.32531,-0.24742095,22.98514858
1.71E+12,3,0.293674096,6425.096226,2931.325561,-0.313713044,22.15754988
1.71E+12,3,0.292829792,6648.225609,2931.325857,-0.37577687,21.33731844
1.71E+12,3,0.291896355,6891.866849,2931.326201,-0.433760634,20.52553849
1.71E+12,3,0.290873609,7156.159356,2931.326593,-0.487816352,19.72324449
1.71E+12,3,0.289761447,7441.242331,2931.327034,-0.538098937,18.93141945
1.71E+12,3,0.288559837,7747.251025,2931.327525,-0.58476532,18.15099342
1.71E+12,3,0.287268833,8074.311598,2931.328067,-0.627973608,17.38284227
1.71E+12,3,0.285888577,8422.537417,2931.328662,-0.667882282,16.62778665
1.71E+12,3,0.284419313,8792.025247,2931.329311,-0.704649438,15.88659123
1.71E+12,3,0.282861393,9182.851425,2931.330018,-0.738432083,15.15996407
1.71E+12,3,0.281215291,9595.067979,2931.33078,-0.769385468,14.44855633
1.71E+12,3,0.279481607,10028.69889,2931.3316,-0.797662491,13.75296212
1.71E+12,3,0.277661069,10483.73503,2931.332476,-0.82341314,13.07371854
1.71E+12,3,0.275754543,10960.13226,2931.33341,-0.846784,12.41130597
1.71E+12,3,0.273763037,11457.80777,2931.334403,-0.867917816,11.76614857
1.71E+12,3,0.271687711,11976.6366,2931.335456,-0.886953116,11.13861491
1.71E+12,3,0.269529883,12516.44967,2931.336569,-0.904023889,10.52901878
1.71E+12,3,0.267291036,13077.02913,2931.337741,-0.919259322,9.937620253
1.71E+12,3,0.264972818,13658.10407,2931.338971,-0.932783599,9.364626802
1.71E+12,3,0.262577046,14259.34818,2931.340257,-0.944715749,8.810194622
1.71E+12,3,0.260105705,14880.37889,2931.3416,-0.955169554,8.27443008
1.71E+12,3,0.257560957,15520.75524,2931.342999,-0.964253513,7.757391281
1.71E+12,3,0.254945134,16179.97442,2931.344452,-0.972070848,7.259089757
1.71E+12,3,0.252260745,16857.47213,2931.345958,-0.978719567,6.779492248
1.71E+12,3,0.24951045,17552.65012,2931.347515,-0.98429257,6.318522582
1.71E+12,3,0.246697054,18264.87129,2931.349121,-0.988877798,5.876063626
1.71E+12,3,0.243823502,18993.43059,2931.350772,-0.992558418,5.451959305
1.71E+12,3,0.240892881,19737.55441,2931.352467,-0.995413051,5.046016669
1.71E+12,3,0.237908417,20496.40228,2931.354204,-0.997516025,4.658008008
1.71E+12,3,0.23487348,21269.06695,2931.355979,-0.998937657,4.287672992
1.71E+12,3,0.231791587,22054.57274,2931.357789,-0.999744568,3.934720829
1.71E+12,3,0.2286664,22851.87585,2931.359632,-1,3.598832428
1.71E+12,3,0.225501715,23659.86539,2931.361506,-1,3.279640869
1.71E+12,3,0.22230147,24477.36507,2931.363409,-1,2.97673703
1.71E+12,3,0.219069724,25303.13643,2931.365335,-1,2.689695007
1.71E+12,3,0.215810656,26135.88194,2931.367283,-1,2.41807402
1.71E+12,3,0.212528558,26974.24794,2931.369245,-1,2.16142031
1.71E+12,3,0.209227824,27816.82822,2931.371217,-1,1.919269032
1.71E+12,3,0.205912936,28662.16771,2931.373196,-1,1.691146105
1.71E+12,3,0.202588451,29508.76653,2931.375179,-1,1.476570044
1.71E+12,3,0.199258983,30355.08412,2931.377164,-1,1.275053741
1.71E+12,3,0.195929197,31199.54377,2931.379147,-1,1.086106205
1.71E+12,3,0.192603793,32040.53719,2931.381124,-1,0.909234242
1.71E+12,3,0.1892875,32876.42929,2931.383089,-1,0.743944081
1.71E+12,3,0.18598507,33705.56313,2931.385035,-1,0.589742928
1.71E+12,3,0.182701253,34526.26544,2931.38696,-1,0.446140453
1.71E+12,3,0.179440768,35336.85258,2931.388859,-1,0.312650198
1.71E+12,3,0.176208281,36135.63629,2931.390731,-1,0.188790907
1.71E+12,3,0.173008407,36920.92904,2931.392572,-1,0.074087772
1.71E+12,3,0.169845705,37691.04932,2931.394376,-1,-0.031926405
1.71E+12,3,0.166724665,38444.32728,2931.396137,-1,-0.129710143
1.71E+12,3,0.163649703,39179.11045,2931.39785,-1,-0.219712298
1.71E+12,3,0.160625142,39893.76979,2931.399512,-1,-0.302371173
1.71E+12,3,0.157655198,40586.70551,2931.40112,-1,-0.37811372
1.71E+12,3,0.154743967,41256.35285,2931.402672,-1,-0.447354836
1.71E+12,3,0.151895417,41901.18773,2931.404164,-1,-0.51049674
1.71E+12,3,0.14911337,42519.73239,2931.405591,-1,-0.567928455
1.71E+12,3,0.146401499,43110.56075,2931.406948,-1,-0.620025368
1.71E+12,3,0.143763318,43672.30362,2931.408232,-1,-0.667148879
1.71E+12,3,0.14120217,44203.65385,2931.409442,-1,-0.709646136
1.71E+12,3,0.13872122,44703.37124,2931.410576,-1,-0.747849846
1.71E+12,3,0.136323443,45170.28718,2931.411634,-1,-0.782078174
1.71E+12,3,0.134011617,45603.30908,2931.412612,-1,-0.8126347
1.71E+12,3,0.131788316,46001.42448,2931.413508,-1,-0.83980846
1.71E+12,3,0.129655904,46363.70486,2931.41432,-1,-0.863874044
1.71E+12,3,0.127616531,46689.30912,2931.415045,-1,-0.885091758
1.71E+12,3,0.125672134,46977.48676,2931.415682,-1,-0.903707842
1.71E+12,3,0.123824424,47227.58067,2931.416231,-1,-0.919954735
1.71E+12,3,0.122074895,47439.02961,2931.41669,-1,-0.934051389
1.71E+12,3,0.120424816,47611.37025,2931.417059,-1,-0.946203625
1.71E+12,3,0.118875233,47744.2389,2931.417338,-1,-0.956604515
1.71E+12,3,0.117426969,47837.37279,2931.417525,-1,-0.965434808
1.71E+12,3,0.116080628,47890.61096,2931.41762,-1,-0.972863362
1.71E+12,3,0.114836593,47903.89478,2931.417626,-1,-0.979047614
1.71E+12,3,0.113695031,47877.26806,2931.417543,-1,-0.984134048
1.71E+12,3,0.112655893,47810.87674,2931.417374,-1,-0.988258678
1.71E+12,3,0.111718921,47704.9682,2931.417119,-1,-0.991547537
1.71E+12,3,0.110883652,47559.89012,2931.416779,-1,-0.994117162
1.71E+12,3,0.110149424,47376.08899,2931.416352,-1,-0.99607507
1.71E+12,3,0.109515382,47154.10821,2931.415841,-1,-0.997520234
1.71E+12,3,0.108980487,46894.58579,2931.415249,-1,-0.998543533
1.71E+12,3,0.108543527,46598.25173,2931.414579,-1,-0.999228197
1.71E+12,3,0.108203121,46265.92497,2931.413835,-1,-0.99965022
1.71E+12,3,0.107957732,45898.51013,2931.413018,-1,-0.999878758
1.71E+12,3,0.107805677,45496.99379,2931.41213,-1,-0.999976499
1.71E+12,3,0.107745139,45062.44056,2931.41117,-1,-1
1.71E+12,3,0.107774171,44595.98891,2931.410144,-1,-1
1.71E+12,3,0.107890714,44098.84661,2931.409055,-1,-1
1.71E+12,3,0.108092606,43572.28603,2931.407909,-1,-1
1.71E+12,3,0.10837759,43017.63927,2931.406707,-1,-1
1.71E+12,3,0.108743324,42436.29297,2931.405451,-1,-1
1.71E+12,3,0.109187396,41829.68306,2931.404143,-1,-1
1.71E+12,3,0.109707335,41199.28931,2931.402785,-1,-1
1.71E+12,3,0.110300616,40546.62982,2931.401381,-1,-1
1.71E+12,3,0.110964676,39873.25538,2931.399937,-1,-1
1.71E+12,3,0.111696923,39180.74382,2931.398457,-1,-1
1.71E+12,3,0.112494745,38470.69423,2931.396945,-1,-1
1.71E+12,3,0.113355523,37744.72129,2931.395402,-1,-1
1.71E+12,3,0.11427664,37004.44954,2931.393828,-1,-1
1.71E+12,3,0.115255492,36251.50774,2931.392226,-1,-1
1.71E+12,3,0.116289494,35487.52326,2931.390599,-1,-1
1.71E+12,3,0.117376097,34714.11665,2931.388952,-1,-1
1.71E+12,3,0.118512785,33932.8962,2931.387288,-1,-1
1.71E+12,3,0.119697092,33145.45283,2931.385609,-1,-1
1.71E+12,3,0.120926602,32353.35495,2931.383915,-1,-1
1.71E+12,3,0.122198963,31558.14369,2931.382207,-1,-1
1.71E+12,3,0.123511889,30761.32815,2931.380489,-1,-1
1.71E+12,3,0.124863172,29964.38102,2931.378764,-1,-1
1.71E+12,3,0.126250685,29168.73436,2931.377035,-1,-1
1.71E+12,3,0.12767239,28375.77571,2931.375304,-1,-1
1.71E+12,3,0.129126339,27586.84444,2931.373572,-1,-1
1.71E+12,3,0.130610676,26803.2284,2931.37184,-1,-1
1.71E+12,3,0.132123642,26026.16084,2931.370106,-1,-1
1.71E+12,3,0.133663574,25256.81773,2931.368374,-1,-1
1.71E+12,3,0.135228906,24496.31525,2931.366647,-1,-1
1.71E+12,3,0.136818172,23745.70769,2931.364926,-1,-1
1.71E+12,3,0.138430003,23005.98564,2931.363211,-1,-1
1.71E+12,3,0.140063135,22278.07452,2931.361503,-1,-1
1.71E+12,3,0.1417164,21562.83337,2931.359799,-1,-1
1.71E+12,3,0.143388728,20861.05408,2931.3581,-1,-1
1.71E+12,3,0.145079146,20173.46081,2931.356409,-1,-1
1.71E+12,3,0.146786774,19500.70981,2931.354727,-1,-1
1.71E+12,3,0.148510824,18843.38951,2931.353057,-1,-1
1.71E+12,3,0.150250597,18202.02087,2931.351398,-1,-1
1.71E+12,3,0.152005478,17577.05813,2931.349747,-1,-1
1.71E+12,3,0.153774932,16968.88969,2931.348103,-1,-1
1.71E+12,3,0.155558502,16377.83933,2931.346466,-1,-1
1.71E+12,3,0.157355804,15804.16774,2931.344836,-1,-1
1.71E+12,3,0.159166518,15248.07413,2931.343216,-1,-1
1.71E+12,3,0.160990387,14709.69818,2931.341605,-1,-1
1.71E+12,3,0.16282721,14189.12215,2931.340002,-1,-1
1.71E+12,3,0.164676839,13686.37316,2931.338406,-1,-1
1.71E+12,3,0.166539174,13201.42565,2931.336816,-1,-1
1.71E+12,3,0.168414155,12734.20394,2931.33523,-1,-1
1.71E+12,3,0.170301765,12284.58495,2931.333649,-1,-1
1.71E+12,3,0.172202019,11852.401,2931.332074,-1,-1
1.71E+12,3,0.174114962,11437.44276,2931.330504,-1,-1
1.71E+12,3,0.176040653,11039.46232,2931.32894,-1,-1
1.71E+12,3,0.17797916,10658.1762,2931.327379,-1,-1
1.71E+12,3,0.179930556,10293.26849,2931.325821,-1,-1
1.71E+12,3,0.181894909,9944.393888,2931.324267,-1,-1
1.71E+12,3,0.18387228,9611.180781,2931.322717,-1,-1
1.71E+12,3,0.185862721,9293.234264,2931.32117,-1,-1
1.71E+12,3,0.18786626,8990.139174,2931.319627,-1,-1
1.71E+12,3,0.189882904,8701.463068,2931.318088,-1,-1
1.71E+12,3,0.191912626,8426.759117,2931.316554,-1,-1
1.71E+12,3,0.193955364,8165.568897,2931.315026,-1,-1
1.71E+12,3,0.196011018,7917.425059,2931.313503,-1,-1
1.71E+12,3,0.198079442,7681.853878,2931.311986,-1,-1
1.71E+12,3,0.200160449,7458.377672,2931.310473,-1,-1
1.71E+12,3,0.202253803,7246.517092,2931.308965,-1,-1
1.71E+12,3,0.20435922,7045.793243,2931.307465,-1,-1
1.71E+12,3,0.206476366,6855.729618,2931.305972,-1,-1
1.71E+12,3,0.208604863,6675.853758,2931.304489,-1,-1
1.71E+12,3,0.210744302,6505.697992,2931.303015,-1,-1
1.71E+12,3,0.212894246,6344.798883,2931.301551,-1,-1
1.71E+12,3,0.215054214,6192.695868,2931.300095,-1,-1
1.71E+12,3,0.21722367,6048.929908,2931.298649,-1,-1
1.71E+12,3,0.219402017,5913.044085,2931.297215,-1,-1
1.71E+12,3,0.221588592,5784.585523,2931.295797,-1,-1
1.71E+12,3,0.223782667,5663.11065,2931.294397,-1,-1
1.71E+12,3,0.225983451,5548.18945,2931.293014,-1,-1
1.71E+12,3,0.228190088,5439.408633,2931.291648,-1,-1
1.71E+12,3,0.230401664,5336.374711,2931.2903,-1,-1
1.71E+12,3,0.232617204,5238.712266,2931.288971,-1,-1
1.71E+12,3,0.234835681,5146.065664,2931.287664,-1,-1
1.71E+12,3,0.237056011,5058.098633,2931.286382,-1,-1
1.71E+12,3,0.239277061,4974.492397,2931.285128,-1,-1
1.71E+12,3,0.241497651,4894.947002,2931.283903,-1,-1
1.71E+12,3,0.243716558,4819.182434,2931.282709,-1,-1
1.71E+12,3,0.245932516,4746.936173,2931.281545,-1,-1
1.71E+12,3,0.248144224,4677.961083,2931.280413,-1,-1
1.71E+12,3,0.250350344,4612.026537,2931.279316,-1,-1
1.71E+12,3,0.252549508,4548.919354,2931.278254,-1,-1
1.71E+12,3,0.254740322,4488.441198,2931.277232,-1,-1
1.71E+12,3,0.256921369,4430.406362,2931.276248,-1,-1
1.71E+12,3,0.259091209,4374.642811,2931.275303,-1,-1
1.71E+12,3,0.261248387,4320.991436,2931.274398,-1,-1
1.71E+12,3,0.263391435,4269.30532,2931.273535,-1,-1
1.71E+12,3,0.265518876,4219.449012,2931.272716,-1,-1
1.71E+12,3,0.267629229,4171.297823,2931.271945,-1,-1
1.71E+12,3,0.269721011,4124.737145,2931.271221,-1,-1
1.71E+12,3,0.27179274,4079.661799,2931.270542,-1,-1
1.71E+12,3,0.273842943,4035.977052,2931.26991,-1,-1
1.71E+12,3,0.275870154,3993.59614,2931.269324,-1,-1
1.71E+12,3,0.27787292,3952.438237,2931.268787,-1,-1
1.71E+12,3,0.279849808,3912.429737,2931.2683,-1,-1
1.71E+12,3,0.281799401,3873.503804,2931.267864,-1,-1
1.71E+12,3,0.283720303,3835.615571,2931.267477,-1,-1
1.71E+12,3,0.285611136,3798.750923,2931.267138,-1,-1
1.71E+12,3,0.287470539,3762.908683,2931.266847,-1,-1
1.71E+12,3,0.289297175,3728.089534,2931.266606,-1,-1
1.71E+12,3,0.291089731,3694.295526,2931.266415,-1,-1
1.71E+12,3,0.292846922,3661.528365,2931.266273,-1,-1
1.71E+12,3,0.294567509,3629.788451,2931.266179,-1,-1
1.71E+12,3,0.296250301,3599.074642,2931.266129,-1,-1
1.71E+12,3,0.297894155,3569.384541,2931.266124,-1,-1
1.71E+12,3,0.299497976,3540.714757,2931.266164,-1,-1
1.71E+12,3,0.301060717,3513.06086,2931.266249,-1,-1
1.71E+12,3,0.302581384,3486.417417,2931.266377,-1,-1
1.71E+12,3,0.304059034,3460.77797,2931.266547,-1,-1
1.71E+12,3,0.305492785,3436.134975,2931.266756,-1,-1
1.71E+12,3,0.306881818,3412.479778,2931.267002,-1,-1
1.71E+12,3,0.308225383,3389.802642,2931.267284,-1,-1
1.71E+12,3,0.309522797,3368.092778,2931.267603,-1,-1
1.71E+12,3,0.31077345,3347.338401,2931.267956,-1,-1
1.71E+12,3,0.311976805,3327.526752,2931.26834,-1,-1
1.71E+12,3,0.3131324,3308.644192,2931.268754,-1,-1
1.71E+12,3,0.314239841,3290.676341,2931.269193,-1,-1
1.71E+12,3,0.315298807,3273.608193,2931.269657,-1,-1
1.71E+12,3,0.316309045,3257.424244,2931.270145,-1,-1
1.71E+12,3,0.317270373,3242.108514,2931.270655,-1,-1
1.71E+12,3,0.318182681,3227.644465,2931.271186,-1,-1
1.71E+12,3,0.319045933,3214.015025,2931.271734,-1,-1
1.71E+12,3,0.319860168,3201.202715,2931.272296,-1,-1
1.71E+12,3,0.32062549,3189.189811,2931.272869,-1,-1
1.71E+12,3,0.321342071,3177.958457,2931.273454,-1,-1
1.71E+12,3,0.322010151,3167.49063,2931.274051,-1,-1
1.71E+12,3,0.322630036,3157.768092,2931.274658,-1,-1
1.71E+12,3,0.323202105,3148.772378,2931.275273,-1,-1
1.71E+12,3,0.3237268,3140.484841,2931.275892,-1,-1
1.71E+12,3,0.324204632,3132.886685,2931.276511,-1,-1
1.71E+12,3,0.324636174,3125.958962,2931.27713,-1,-1
1.71E+12,3,0.325022067,3119.68256,2931.277748,-1,-1
1.71E+12,3,0.325363011,3114.038183,2931.278367,-1,-1
1.71E+12,3,0.325659775,3109.00621,2931.278985,-1,-1
1.71E+12,3,0.325913193,3104.56626,2931.279598,-1,-1
1.71E+12,3,0.326124176,3100.696205,2931.280205,-1,-1
1.71E+12,3,0.326293698,3097.371203,2931.280804,-1,-1
1.71E+12,3,0.326422791,3094.564849,2931.281395,-1,-1
1.71E+12,3,0.326512526,3092.252006,2931.28198,-1,-1
1.71E+12,3,0.326564011,3090.40978,2931.282558,-1,-1
1.71E+12,3,0.326578385,3089.017738,2931.283128,-1,-1
1.71E+12,3,0.326556809,3088.057789,2931.283685,-1,-1
1.71E+12,3,0.326500466,3087.512925,2931.28423,-1,-1
1.71E+12,3,0.326410567,3087.366636,2931.284762,-1,-1
1.71E+12,3,0.326288344,3087.602727,2931.285282,-1,-1
1.71E+12,3,0.326135059,3088.205021,2931.285792,-1,-1
1.71E+12,3,0.325952002,3089.157239,2931.286293,-1,-1
1.71E+12,3,0.32574049,3090.442996,2931.286781,-1,-1
1.71E+12,3,0.325501864,3092.04581,2931.287257,-1,-1
1.71E+12,3,0.325237487,3093.949137,2931.287721,-1,-1
1.71E+12,3,0.324948737,3096.136422,2931.288173,-1,-1
1.71E+12,3,0.324637006,3098.591235,2931.288616,-1,-1
1.71E+12,3,0.324303682,3101.297416,2931.289051,-1,-1
1.71E+12,3,0.323950167,3104.238811,2931.289477,-1,-1
1.71E+12,3,0.323577881,3107.398828,2931.289893,-1,-1
1.71E+12,3,0.323188263,3110.760428,2931.2903,-1,-1
1.71E+12,3,0.32278275,3114.3066,2931.290699,-1,-1
1.71E+12,3,0.322362767,3118.020785,2931.291091,-1,-1
1.71E+12,3,0.321929717,3121.887083,2931.291478,-1,-1
1.71E+12,3,0.321484982,3125.890216,2931.291862,-1,-1
1.71E+12,3,0.321029919,3130.015337,2931.292241,-1,-1
1.71E+12,3,0.320565867,3134.247962,2931.292618,-1,-1
1.71E+12,3,0.32009414,3138.57397,2931.292993,-1,-1
1.71E+12,3,0.319616025,3142.979585,2931.293367,-1,-1
1.71E+12,3,0.319132787,3147.451365,2931.293741,-1,-1
1.71E+12,3,0.318645658,3151.976254,2931.294115,-1,-1
1.71E+12,3,0.318155838,3156.541623,2931.294491,-1,-1
1.71E+12,3,0.317664494,3161.135235,2931.294868,-1,-1
1.71E+12,3,0.317172759,3165.745205,2931.295248,-1,-1
1.71E+12,3,0.316681737,3170.359989,2931.29563,-1,-1
1.71E+12,3,0.316192496,3174.968397,2931.296013,-1,-1
1.71E+12,3,0.315706071,3179.559596,2931.296398,-1,-1
1.71E+12,3,0.315223461,3184.123138,2931.296786,-1,-1
1.71E+12,3,0.314745627,3188.648966,2931.297179,-1,-1
1.71E+12,3,0.31427349,3193.127434,2931.297579,-1,-1
1.71E+12,3,0.31380793,3197.549315,2931.297986,-1,-1
1.71E+12,3,0.313349788,3201.905807,2931.298397,-1,-1
1.71E+12,3,0.312899861,3206.188543,2931.298812,-1,-1
1.71E+12,3,0.312458907,3210.389593,2931.299231,-1,-1
1.71E+12,3,0.312027637,3214.501459,2931.299655,-1,-1
1.71E+12,3,0.311606725,3218.517081,2931.300084,-1,-1
1.71E+12,3,0.311196799,3222.429831,2931.300517,-1,-1
1.71E+12,3,0.310798447,3226.233509,2931.300953,-1,-1
1.71E+12,3,0.310412214,3229.92234,2931.301389,-1,-1
1.71E+12,3,0.310038605,3233.49096,2931.301826,-1,-1
1.71E+12,3,0.309678087,3236.934408,2931.302264,-1,-1
1.71E+12,3,0.309331084,3240.24813,2931.302703,-1,-1
1.71E+12,3,0.308997982,3243.427964,2931.303141,-1,-1
1.71E+12,3,0.30867913,3246.470165,2931.303577,-1,-1
1.71E+12,3,0.308374834,3249.371406,2931.30401,-1,-1
1.71E+12,3,0.308085362,3252.128779,2931.304439,-1,-1
1.71E+12,3,0.307810941,3254.739796,2931.304862,-1,-1
1.71E+12,3,0.30755176,3257.202379,2931.305282,-1,-1
1.71E+12,3,0.307307968,3259.514858,2931.305695,-1,-1
1.71E+12,3,0.307079674,3261.675988,2931.306101,-1,-1
1.71E+12,3,0.306866944,3263.684936,2931.306497,-1,-1
1.71E+12,3,0.306669809,3265.54126,2931.306883,-1,-1
1.71E+12,3,0.306488261,3267.24488,2931.307258,-1,-1
1.71E+12,3,0.306322259,3268.79606,2931.307623,-1,-1
1.71E+12,3,0.306171733,3270.195374,2931.307975,-1,-1
1.71E+12,3,0.306036585,3271.443658,2931.308314,-1,-1
1.71E+12,3,0.305916693,3272.541979,2931.308638,-1,-1
1.71E+12,3,0.305811914,3273.491649,2931.308948,-1,-1
1.71E+12,3,0.305722076,3274.294234,2931.309242,-1,-1
1.71E+12,3,0.305646986,3274.951564,2931.30952,-1,-1
1.71E+12,3,0.305586423,3275.465737,2931.309782,-1,-1
1.71E+12,3,0.305540145,3275.839098,2931.310027,-1,-1
1.71E+12,3,0.305507885,3276.074258,2931.310258,-1,-1
1.71E+12,3,0.305489346,3276.174173,2931.310473,-1,-1
1.71E+12,3,0.305484184,3276.142586,2931.310673,-1,-1
1.71E+12,3,0.305491982,3275.985554,2931.310857,-1,-1
1.71E+12,3,0.30551225,3275.714294,2931.311025,-1,-1
1.71E+12,3,0.305544442,3275.349108,2931.311178,-1,-1
1.71E+12,3,0.305587964,3274.923754,2931.311319,-1,-1
1.71E+12,3,0.305642175,3274.487834,2931.311447,-1,-1
1.71E+12,3,0.305706392,3274.107761,2931.311563,-1,-1
1.71E+12,3,0.305779899,3273.839576,2931.311669,-1,-1
1.71E+12,3,0.305861965,3273.718092,2931.311762,-1,-1
1.71E+12,3,0.305951842,3273.777044,2931.311844,-1,-1
1.71E+12,3,0.306048764,3274.050811,2931.311919,-1,-1
1.71E+12,3,0.306151945,3274.575054,2931.31199,-1,-1
1.71E+12,3,0.306260576,3275.386959,2931.312056,-1,-1
1.71E+12,3,0.306373828,3276.525475,2931.312121,-1,-1
1.71E+12,3,0.306490849,3278.031358,2931.312184,-1,-1
1.71E+12,3,0.306610769,3279.947186,2931.312247,-1,-1
1.71E+12,3,0.306732702,3282.31742,2931.312313,-1,-1
1.71E+12,3,0.306855744,3285.188418,2931.312387,-1,-1
1.71E+12,3,0.306978973,3288.608516,2931.31247,-1,-1
1.71E+12,3,0.307101445,3292.628054,2931.312566,-1,-1
1.71E+12,3,0.30722219,3297.299337,2931.312674,-1,-1
1.71E+12,3,0.307340222,3302.676565,2931.312796,-1,-1
1.71E+12,3,0.307454529,3308.815761,2931.312933,-1,-1
1.71E+12,3,0.307564084,3315.774676,2931.31309,-1,-1
1.71E+12,3,0.30766784,3323.612639,2931.313271,-1,-1
1.71E+12,3,0.307764738,3332.390383,2931.313477,-1,-1
1.71E+12,3,0.307853712,3342.169867,2931.31371,-1,-1
1.71E+12,3,0.307933687,3353.014073,2931.31397,-1,-1
1.71E+12,3,0.308003585,3364.986809,2931.314261,-1,-1
1.71E+12,3,0.308062323,3378.15248,2931.314585,-1,-1
1.71E+12,3,0.30810882,3392.575842,2931.314946,-1,-1
1.71E+12,3,0.308141994,3408.321716,2931.315346,-1,-1
1.71E+12,3,0.308160773,3425.454694,2931.315784,-1,-1
1.71E+12,3,0.308164096,3444.038812,2931.31626,-1,-1
1.71E+12,3,0.308150917,3464.137236,2931.316777,-1,-1
1.71E+12,3,0.308120209,3485.811917,2931.317338,-1,-1
1.71E+12,3,0.308070968,3509.123239,2931.317944,-1,-1
1.71E+12,3,0.30800222,3534.12965,2931.318595,-1,-1
1.71E+12,3,0.30791302,3560.887296,2931.319291,-1,-1
1.71E+12,3,0.307802463,3589.449634,2931.32003,-1,-1
1.71E+12,3,0.307669684,3619.867053,2931.320814,-1,-1
1.71E+12,3,0.307513866,3652.186477,2931.321644,-1,-1
1.71E+12,3,0.307334244,3686.450976,2931.322521,-1,-1
1.71E+12,3,0.307130109,3722.699388,2931.323444,-1,-1
1.71E+12,3,0.306900813,3760.965945,2931.324411,-1,-1
1.71E+12,3,0.306645776,3801.27989,2931.32542,-1,-1
1.71E+12,3,0.306364486,3843.665097,2931.326472,-1,-1
1.71E+12,3,0.306056511,3888.139728,2931.327565,-1,-1
1.71E+12,3,0.305721499,3934.715904,2931.328701,-1,-1
1.71E+12,3,0.30535918,3983.399376,2931.329877,-1,-1
1.71E+12,3,0.304969376,4034.189215,2931.33109,-1,-1
1.71E+12,3,0.304552007,4087.077502,2931.332338,-1,-1
1.71E+12,3,0.304107093,4142.04906,2931.333619,-1,-1
1.71E+12,3,0.303634763,4199.081221,2931.334931,-1,-1
1.71E+12,3,0.303135252,4258.143643,2931.336274,-1,-1
1.71E+12,3,0.302608901,4319.198152,2931.337645,-1,-1
1.71E+12,3,0.30205616,4382.198611,2931.339041,-1,-1
1.71E+12,3,0.301477592,4447.090786,2931.340456,-1,-1
1.71E+12,3,0.300873874,4513.812269,2931.34189,-1,-1
1.71E+12,3,0.300245802,4582.292438,2931.343338,-1,-1
1.71E+12,3,0.299594285,4652.45246,2931.3448,-1,-1
1.71E+12,3,0.29892035,4724.205329,2931.346274,-1,-1
1.71E+12,3,0.298225139,4797.455943,2931.347754,-1,-1
1.71E+12,3,0.29750991,4872.101215,2931.349235,-1,-1
1.71E+12,3,0.296776032,4948.030229,2931.350716,-1,-1
1.71E+12,3,0.296024986,5025.124432,2931.352193,-1,-1
1.71E+12,3,0.295258364,5103.257865,2931.353665,-1,-1
1.71E+12,3,0.294477861,5182.29744,2931.355128,-1,-1
1.71E+12,3,0.293685276,5262.103241,2931.356581,-1,-1
1.71E+12,3,0.292882506,5342.528868,2931.358019,-1,-1
1.71E+12,3,0.292071543,5423.421813,2931.359439,-1,-1
1.71E+12,3,0.291254472,5504.623882,2931.36084,-1,-1
1.71E+12,3,0.290433459,5585.971645,2931.362219,-1,-1
1.71E+12,3,0.28961075,5667.296922,2931.363574,-1,-1
1.71E+12,3,0.288788664,5748.427294,2931.364903,-1,-1
1.71E+12,3,0.287969586,5829.18664,2931.366203,-1,-1
1.71E+12,3,0.287155957,5909.395715,2931.367472,-1,-1
1.71E+12,3,0.286350267,5988.872768,2931.368709,-1,-1
1.71E+12,3,0.285555039,6067.434188,2931.369911,-1,-1
1.71E+12,3,0.284772821,6144.895159,2931.371075,-1,-1
1.71E+12,3,0.28400618,6221.070286,2931.3722,-1,-1
1.71E+12,3,0.283257692,6295.77424,2931.373286,-1,-1
1.71E+12,3,0.282529941,6368.822432,2931.374331,-1,-1
1.71E+12,3,0.281825498,6440.031703,2931.375336,-1,-1
1.71E+12,3,0.281146923,6509.220983,2931.376297,-1,-1
1.71E+12,3,0.280496752,6576.21195,2931.377212,-1,-1
1.71E+12,3,0.279877491,6640.829699,2931.378081,-1,-1
1.71E+12,3,0.279291604,6702.9034,2931.378905,-1,-1
1.71E+12,3,0.278741518,6762.266899,2931.379684,-1,-1
1.71E+12,3,0.278229606,6818.759362,2931.380419,-1,-1
1.71E+12,3,0.277758184,6872.225907,2931.381107,-1,-1
1.71E+12,3,0.277329502,6922.518193,2931.381748,-1,-1
1.71E+12,3,0.276945737,6969.495021,2931.382341,-1,-1
1.71E+12,3,0.276608983,7013.022913,2931.382887,-1,-1
1.71E+12,3,0.276321236,7052.976667,2931.383389,-1,-1
1.71E+12,3,0.276084389,7089.239873,2931.383847,-1,-1
1.71E+12,3,0.275900219,7121.705392,2931.384261,-1,-1
1.71E+12,3,0.275770383,7150.275793,2931.38463,-1,-1
1.71E+12,3,0.275696411,7174.863745,2931.384952,-1,-1
1.71E+12,3,0.275679702,7195.392364,2931.385229,-1,-1
1.71E+12,3,0.275721514,7211.795528,2931.385463,-1,-1
1.71E+12,3,0.275822966,7224.018149,2931.385656,-1,-1
1.71E+12,3,0.275985028,7232.016396,2931.385808,-1,-1
1.71E+12,3,0.276208518,7235.757884,2931.385918,-1,-1
1.71E+12,3,0.276494101,7235.221799,2931.385986,-1,-1
1.71E+12,3,0.276842282,7230.398995,2931.386012,-1,-1
1.71E+12,3,0.277253407,7221.292022,2931.385999,-1,-1
1.71E+12,3,0.277727659,7207.915126,2931.385947,-1,-1
1.71E+12,3,0.27826506,7190.294188,2931.385856,-1,-1
1.71E+12,3,0.278865468,7168.466616,2931.385724,-1,-1
1.71E+12,3,0.279528578,7142.481192,2931.385552,-1,-1
1.71E+12,3,0.280253925,7112.397868,2931.385339,-1,-1
1.71E+12,3,0.281040884,7078.287522,2931.385087,-1,-1
1.71E+12,3,0.281888678,7040.231657,2931.384797,-1,-1
1.71E+12,3,0.282796372,6998.322073,2931.384468,-1,-1
1.71E+12,3,0.283762888,6952.660488,2931.384097,-1,-1
1.71E+12,3,0.284787,6903.358124,2931.383684,-1,-1
1.71E+12,3,0.285867344,6850.53526,2931.383228,-1,-1
1.71E+12,3,0.287002424,6794.320738,2931.382729,-1,-1
1.71E+12,3,0.288190614,6734.851453,2931.38219,-1,-1
1.71E+12,3,0.289430169,6672.271799,2931.381609,-1,-1
1.71E+12,3,0.290719227,6606.7331,2931.380983,-1,-1
1.71E+12,3,0.292055823,6538.393002,2931.380313,-1,-1
1.71E+12,3,0.293437891,6467.414862,2931.379598,-1,-1
1.71E+12,3,0.294863276,6393.967103,2931.378836,-1,-1
1.71E+12,3,0.296329742,6318.222563,2931.378028,-1,-1
1.71E+12,3,0.297834976,6240.357837,2931.377174,-1,-1
1.71E+12,3,0.299376604,6160.552601,2931.376271,-1,-1
1.71E+12,3,0.300952194,6078.988943,2931.375318,-1,-1
1.71E+12,3,0.302559268,5995.85068,2931.374315,-1,-1
1.71E+12,3,0.304195307,5911.32269,2931.37326,-1,-1
1.71E+12,3,0.305857767,5825.590233,2931.372156,-1,-1
1.71E+12,3,0.307544082,5738.838292,2931.371001,-1,-1
1.71E+12,3,0.309251675,5651.250923,2931.369794,-1,-1
1.71E+12,3,0.310977968,5563.010615,2931.368535,-1,-1
1.71E+12,3,0.312720391,5474.29767,2931.367223,-1,-1
1.71E+12,3,0.314476386,5385.289611,2931.36586,-1,-1
1.71E+12,3,0.316243422,5296.160602,2931.364443,-1,-1
1.71E+12,3,0.318018996,5207.080891,2931.362974,-1,-1
1.71E+12,3,0.319800647,5118.216291,2931.361453,-1,-1
1.71E+12,3,0.321585959,5029.727687,2931.359881,-1,-1
1.71E+12,3,0.323372565,4941.770586,2931.35826,-1,-1
1.71E+12,3,0.325158158,4854.494685,2931.356589,-1,-1
1.71E+12,3,0.32694049,4768.043483,2931.354871,-0.999823066,-0.999966194
1.71E+12,3,0.328717381,4682.553935,2931.353106,-0.99926413,-0.999825593
1.71E+12,3,0.33048672,4598.156131,2931.351297,-0.998279385,-0.999496839
1.71E+12,3,0.33224647,4514.97303,2931.349445,-0.996822685,-0.998889756
1.71E+12,3,0.33399467,4433.120211,2931.347551,-0.994845321,-0.997904863
1.71E+12,3,0.335729445,4352.705672,2931.345617,-0.992295807,-0.996432841
1.71E+12,3,0.337449,4273.829683,2931.343644,-0.989119684,-0.994353964
1.71E+12,3,0.339151602,4196.584939,2931.341636,-0.985259343,-0.9915375
1.71E+12,3,0.340835555,4121.057481,2931.339594,-0.980653869,-0.987841078
1.71E+12,3,0.342499186,4047.328708,2931.337522,-0.975238912,-0.983110033
1.71E+12,3,0.344140873,3975.478632,2931.335423,-0.968946581,-0.977176727
1.71E+12,3,0.345759047,3905.589771,2931.333299,-0.961705377,-0.969859861
1.71E+12,3,0.347352206,3837.751037,2931.331154,-0.953440145,-0.960963775
1.71E+12,3,0.34891891,3772.059121,2931.328992,-0.944072069,-0.950277752
1.71E+12,3,0.350457784,3708.617762,2931.326818,-0.933518698,-0.93757532
1.71E+12,3,0.35196751,3647.536936,2931.324634,-0.921694014,-0.922613573
1.71E+12,3,0.353446829,3588.930144,2931.322446,-0.90850853,-0.905132506
1.71E+12,3,0.35489453,3532.914209,2931.320257,-0.893869433,-0.884854379
1.71E+12,3,0.356309453,3479.610273,2931.318072,-0.877680768,-0.861483121
1.71E+12,3,0.357690475,3429.144886,2931.315894,-0.859843656,-0.834703766
1.71E+12,3,0.359036511,3381.651135,2931.313728,-0.84025656,-0.804181949
1.71E+12,3,0.360346506,3337.26811,2931.311579,-0.818815585,-0.769563454
1.71E+12,3,0.361619431,3296.141886,2931.30945,-0.795414823,-0.730473828
1.71E+12,3,0.362854271,3258.428301,2931.307347,-0.769946731,-0.686518072
1.71E+12,3,0.364050025,3224.292503,2931.305274,-0.742302554,-0.637280406
1.71E+12,3,0.365205696,3193.908105,2931.303236,-0.712372781,-0.582324126
1.71E+12,3,0.366320285,3167.459871,2931.301235,-0.680047635,-0.521191553
1.71E+12,3,0.367392784,3145.144769,2931.299276,-0.645217596,-0.453404084
1.71E+12,3,0.368422171,3127.171395,2931.297364,-0.607773961,-0.378462345
1.71E+12,3,0.3694074,3113.76234,2931.295505,-0.567609424,-0.295846458
1.71E+12,3,0.370347398,3105.156873,2931.293702,-0.524618685,-0.205016429
1.71E+12,3,0.371241061,3101.610397,2931.291957,-0.478699085,-0.105412645
1.71E+12,3,0.372087243,3103.395321,2931.290275,-0.42975125,0.00354349
1.71E+12,3,0.372884754,3110.801873,2931.288657,-0.377679766,0.122448805
1.71E+12,3,0.373632357,3124.138843,2931.287108,-0.322393851,0.251917475
1.71E+12,3,0.374328761,3143.734236,2931.285633,-0.263808046,0.392580001
1.71E+12,3,0.374972618,3169.935846,2931.284233,-0.201842903,0.545082067
1.71E+12,3,0.375562522,3203.111717,2931.282911,-0.136425679,0.710083254
1.71E+12,3,0.376097006,3243.652271,2931.281667,-0.067491019,0.888255629
1.71E+12,3,0.376574538,3291.969062,2931.280503,0.00501836,1.080282207
1.71E+12,3,0.376993527,3348.494771,2931.279421,0.081151007,1.286855278
1.71E+12,3,0.377352318,3413.683352,2931.278425,0.160946088,1.508674613
1.71E+12,3,0.377649191,3488.009765,2931.277515,0.244432759,1.746445557
1.71E+12,3,0.377882371,3571.969834,2931.276692,0.331629563,2.000876997
1.71E+12,3,0.378050023,3666.079707,2931.275955,0.422543863,2.272679226
1.71E+12,3,0.378150259,3770.875439,2931.275303,0.517171302,2.562561705
1.71E+12,3,0.378181136,3886.912188,2931.274738,0.615495308,2.871230728
1.71E+12,3,0.378140657,4014.763542,2931.274262,0.717486638,3.199387004
1.71E+12,3,0.378026779,4155.018651,2931.273875,0.823102969,3.547723153
1.71E+12,3,0.377837409,4308.282692,2931.273574,0.932288539,3.91692114
1.71E+12,3,0.377570423,4475.177296,2931.273358,1.04497384,4.307649653
1.71E+12,3,0.377223668,4656.339353,2931.273222,1.161075371,4.720561421
1.71E+12,3,0.376794974,4852.417792,2931.273168,1.280495447,5.156290513
1.71E+12,3,0.37628216,5064.070082,2931.273194,1.403122067,5.615449595
1.71E+12,3,0.375683045,5291.961887,2931.273299,1.528828855,6.098627187
1.71E+12,3,0.374995451,5536.766946,2931.273479,1.657475058,6.606384918
1.71E+12,3,0.374217226,5799.161499,2931.27373,1.788905612,7.139254786
1.71E+12,3,0.373346282,6079.792266,2931.274049,1.922951288,7.697736458
1.71E+12,3,0.372380641,6379.266966,2931.274431,2.059428888,8.282294595
1.71E+12,3,0.37131845,6698.175049,2931.274877,2.19814153,8.893356242
1.71E+12,3,0.370157957,7037.084494,2931.275384,2.338878991,9.531308277
1.71E+12,3,0.368897507,7396.537099,2931.275947,2.481418123,10.19649494
1.71E+12,3,0.367535545,7777.045814,2931.276561,2.625523342,10.88921546
1.71E+12,3,0.366070623,8179.093333,2931.277222,2.770947177,11.60972178
1.71E+12,3,0.364501393,8603.156505,2931.277924,2.917430892,12.35821642
1.71E+12,3,0.362826616,9049.707098,2931.278666,3.064705168,13.13485041
1.71E+12,3,0.361045179,9519.185784,2931.279446,3.212490853,13.93972148
1.71E+12,3,0.359156115,10011.99662,2931.280258,3.360499762,14.77287228
1.71E+12,3,0.35715862,10528.50289,2931.2811,3.508435543,15.63428883
1.71E+12,3,0.355052063,11069.02344,2931.281966,3.655994591,16.52389916
1.71E+12,3,0.352836008,11633.82907,2931.282851,3.80286701,17.44157206
1.71E+12,3,0.350510215,12223.13923,2931.283751,3.948737627,18.38711613
1.71E+12,3,0.34807465,12837.11879,2931.284664,4.093287038,19.36027893
1.71E+12,3,0.345529496,13475.87481,2931.285586,4.236192698,20.36074639
1.71E+12,3,0.342875161,14139.45345,2931.286512,4.377130036,21.38814243
1.71E+12,3,0.3401123,14827.83689,2931.28744,4.515773605,22.44202878
1.71E+12,3,0.337241821,15540.94054,2931.288366,4.651798243,23.52190505
1.71E+12,3,0.334264897,16278.61043,2931.289286,4.784880259,24.627209
1.71E+12,3,0.331182968,17040.62082,2931.290197,4.91469862,25.75731704
1.71E+12,3,0.327997744,17826.67202,2931.291099,5.040936153,26.91154501
1.71E+12,3,0.324711215,18636.38842,2931.291987,5.163280737,28.08914908
1.71E+12,3,0.321325647,19469.31675,2931.29286,5.281426492,29.28932699
1.71E+12,3,0.317843595,20324.92455,2931.293715,5.395074957,30.51121945
1.71E+12,3,0.314267903,21202.59891,2931.29455,5.503936242,31.7539118
1.71E+12,3,0.310601714,22101.6455,2931.295364,5.607730164,33.01643581
1.71E+12,3,0.306848467,23021.28805,2931.296153,5.706187351,34.29777181
1.71E+12,3,0.303011892,23960.66809,2931.296917,5.799050306,35.59685093
1.71E+12,3,0.299096006,24918.84504,2931.297654,5.886074436,36.91255755
1.71E+12,3,0.295105106,25894.79665,2931.298364,5.96702903,38.24373198
1.71E+12,3,0.291043759,26887.41975,2931.299049,6.041698192,39.58913948
1.71E+12,3,0.286916799,27895.53134,2931.299706,6.109881712,40.94746784
1.71E+12,3,0.282729318,28917.87006,2931.300334,6.171395879,42.31736143
1.71E+12,3,0.278486654,29953.09797,2931.300934,6.226074235,43.69742396
1.71E+12,3,0.274194385,30999.80273,2931.301506,6.273768253,45.08622147
1.71E+12,3,0.269858315,32056.50011,2931.302052,6.314347944,46.48228531
1.71E+12,3,0.265484465,33121.63688,2931.30257,6.3477024,47.88411526
1.71E+12,3,0.261079058,34193.59394,2931.303062,6.373740241,49.29018262
1.71E+12,3,0.256648508,35270.68999,2931.303529,6.392390001,50.69893339
1.71E+12,3,0.252199398,36351.18532,2931.303971,6.403600421,52.10879148
1.71E+12,3,0.247738468,37433.28614,2931.304389,6.407340659,53.51816195
1.71E+12,3,0.243272594,38515.14902,2931.304787,6.403600421,54.92543422
1.71E+12,3,0.238808769,39594.88572,2931.305164,6.392390001,56.32898532
1.71E+12,3,0.234354093,40670.56827,2931.305521,6.373740241,57.72718312
1.71E+12,3,0.229915741,41740.23434,2931.305861,6.3477024,59.11838951
1.71E+12,3,0.225500956,42801.89276,2931.306184,6.314347944,60.50096364
1.71E+12,3,0.221117026,43853.52927,2931.306493,6.273768253,61.87326497
1.71E+12,3,0.216771269,44893.11257,2931.30679,6.226074235,63.23365645
1.71E+12,3,0.212471004,45918.60046,2931.307076,6.171395879,64.58050754
1.71E+12,3,0.208223529,46927.9462,2931.307353,6.109881712,65.91219715
1.71E+12,3,0.204036098,47919.10493,2931.307621,6.041698192,67.22711663
1.71E+12,3,0.199915902,48890.0402,2931.307883,5.96702903,68.52367257
1.71E+12,3,0.195870054,49838.73047,2931.30814,5.886074436,69.80028957
1.71E+12,3,0.19190557,50763.17578,2931.308395,5.799050306,71.05541293
1.71E+12,3,0.188029345,51661.40432,2931.308649,5.706187351,72.28751126
1.71E+12,3,0.184248137,52531.47913,2931.308903,5.607730164,73.495079
1.71E+12,3,0.180568536,53371.50459,2931.309155,5.503936242,74.67663877
1.71E+12,3,0.176996956,54179.63301,2931.309408,5.395074957,75.83074376
1.71E+12,3,0.173539606,54954.07088,2931.309663,5.281426492,76.95597993
1.71E+12,3,0.170202481,55693.08521,2931.309921,5.163280737,78.05096812
1.71E+12,3,0.166991338,56395.00955,2931.310184,5.040936153,79.11436605
1.71E+12,3,0.163911685,57058.24987,2931.310454,4.91469862,80.14487032
1.71E+12,3,0.160968764,57681.29023,2931.310728,4.784880259,81.14121813
1.71E+12,3,0.158167539,58262.69813,2931.311005,4.651798243,82.10218908
1.71E+12,3,0.155512688,58801.12968,2931.311286,4.515773605,83.02660676
1.71E+12,3,0.153008584,59295.33444,2931.311572,4.377130036,83.91334027
1.71E+12,3,0.150659285,59744.15995,2931.311863,4.236192698,84.76130567
1.71E+12,3,0.148468519,60146.55595,2931.312161,4.093287038,85.56946728
1.71E+12,3,0.146439675,60501.57822,2931.312464,3.948737627,86.33683898
1.71E+12,3,0.144575792,60808.39201,2931.312768,3.80286701,87.0624853
1.71E+12,3,0.142879549,61066.27514,2931.313071,3.655994591,87.74552256
1.71E+12,3,0.14135326,61274.62068,2931.313373,3.508435543,88.38511977
1.71E+12,3,0.139998866,61432.93913,2931.313675,3.360499762,88.98049963
1.71E+12,3,0.138817934,61540.86026,2931.313977,3.212490853,89.53093926
1.71E+12,3,0.137811656,61598.13442,2931.314277,3.064705168,90.03577103
1.71E+12,3,0.136980854,61604.63344,2931.314572,2.917430892,90.49438318
1.71E+12,3,0.136325978,61560.35107,2931.314861,2.770947177,90.90622048
1.71E+12,3,0.135847109,61465.40302,2931.315143,2.625523342,91.27078472
1.71E+12,3,0.135543958,61320.02647,2931.315417,2.481418123,91.58763524
1.71E+12,3,0.135415866,61124.57927,2931.31568,2.338878991,91.85638928
1.71E+12,3,0.135461814,60879.53852,2931.315932,2.19814153,92.07672242
1.71E+12,3,0.135680423,60585.49883,2931.316169,2.059428888,92.24836879
1.71E+12,3,0.136069965,60243.17012,2931.316391,1.922951288,92.37112137
1.71E+12,3,0.136628366,59853.37499,2931.316596,1.788905612,92.44483215
1.71E+12,3,0.137353216,59417.04569,2931.316781,1.657475058,92.46941229
1.71E+12,3,0.138241778,58935.22069,2931.316944,1.528828855,92.44483215
1.71E+12,3,0.139290995,58409.04091,2931.317083,1.403122067,92.37112137
1.71E+12,3,0.140497502,57839.74553,2931.317197,1.280495447,92.24836879
1.71E+12,3,0.141857642,57228.66746,2931.317283,1.161075371,92.07672242
1.71E+12,3,0.143367475,56577.22852,2931.31734,1.04497384,91.85638928
1.71E+12,3,0.1450228,55886.93429,2931.317367,0.932288539,91.58763524
1.71E+12,3,0.146819168,55159.36868,2931.317364,0.823102969,91.27078472
1.71E+12,3,0.148751909,54396.18824,2931.317327,0.717486638,90.90622048
1.71E+12,3,0.150816142,53599.1163,2931.317257,0.615495308,90.49438318
1.71E+12,3,0.153006796,52769.93693,2931.31715,0.517171302,90.03577103
1.71E+12,3,0.155318628,51910.48869,2931.317006,0.422543863,89.53093926
1.71E+12,3,0.157746236,51022.6583,2931.316823,0.331629563,88.98049963
1.71E+12,3,0.160284076,50108.37412,2931.316603,0.244432759,88.38511977
1.71E+12,3,0.162926483,49169.59967,2931.316343,0.160946088,87.74552256
1.71E+12,3,0.165667683,48208.32702,2931.316045,0.081151007,87.0624853
1.71E+12,3,0.168501814,47226.57015,2931.315708,0.00501836,86.33683898
1.71E+12,3,0.171422939,46226.3584,2931.315334,-0.067491019,85.56946728
1.71E+12,3,0.174425069,45209.72979,2931.31492,-0.136425679,84.76130567
1.71E+12,3,0.17750218,44178.7246,2931.314467,-0.201842903,83.91334027
1.71E+12,3,0.180648236,43135.37885,2931.313975,-0.263808046,83.02660676
1.71E+12,3,0.1838572,42081.71805,2931.313447,-0.322393851,82.10218908
1.71E+12,3,0.18712305,41019.75106,2931.312884,-0.377679766,81.14121813
1.71E+12,3,0.190439796,39951.46412,2931.312289,-0.42975125,80.14487032
1.71E+12,3,0.193801491,38878.81508,2931.311662,-0.478699085,79.11436605
1.71E+12,3,0.197202245,37803.7278,2931.311004,-0.524618685,78.05096812
1.71E+12,3,0.200636242,36728.08689,2931.310316,-0.567609424,76.95597993
1.71E+12,3,0.204097749,35653.73255,2931.309601,-0.607773961,75.83074376
1.71E+12,3,0.207581128,34582.45585,2931.308864,-0.645217596,74.67663877
1.71E+12,3,0.211080854,33515.99418,2931.308106,-0.680047635,73.495079
1.71E+12,3,0.214591518,32456.02703,2931.30733,-0.712372781,72.28751126
1.71E+12,3,0.218107848,31404.17214,2931.306536,-0.742302554,71.05541293
1.71E+12,3,0.221624711,30361.98187,2931.305725,-0.769946731,69.80028957
1.71E+12,3,0.225137128,29330.94005,2931.304902,-0.795414823,68.52367257
1.71E+12,3,0.228640279,28312.45907,2931.30407,-0.818815585,67.22711663
1.71E+12,3,0.23212951,27307.87736,2931.303233,-0.84025656,65.91219715
1.71E+12,3,0.235600342,26318.45722,2931.302392,-0.859843656,64.58050754
1.71E+12,3,0.239048475,25345.38299,2931.301547,-0.877680768,63.23365645
1.71E+12,3,0.242469794,24389.75963,2931.300702,-0.893869433,61.87326497
1.71E+12,3,0.24586037,23452.61158,2931.29986,-0.90850853,60.50096364
1.71E+12,3,0.24921647,22534.88204,2931.299025,-0.921694014,59.11838951
1.71E+12,3,0.252534552,21637.4325,2931.2982,-0.933518698,57.72718312
1.71E+12,3,0.255811273,20761.04269,2931.297387,-0.944072069,56.32898532
1.71E+12,3,0.25904349,19906.41083,2931.296587,-0.953440145,54.92543422
1.71E+12,3,0.262228258,19074.1542,2931.295803,-0.961705377,53.51816195
1.71E+12,3,0.265362835,18264.80998,2931.295037,-0.968946581,52.10879148
1.71E+12,3,0.268444675,17478.83642,2931.294294,-0.975238912,50.69893339
1.71E+12,3,0.271471433,16716.6143,2931.293576,-0.980653869,49.29018262
1.71E+12,3,0.274440961,15978.4486,2931.292884,-0.985259343,47.88411526
1.71E+12,3,0.277351305,15264.57045,2931.292218,-0.989119684,46.48228531
1.71E+12,3,0.280200704,14575.13932,2931.29158,-0.992295807,45.08622147
1.71E+12,3,0.282987587,13910.24534,2931.290974,-0.994845321,43.69742396
1.71E+12,3,0.285710568,13269.91193,2931.290401,-0.996822685,42.31736143
1.71E+12,3,0.288368445,12654.09851,2931.289864,-0.998279385,40.94746784
1.71E+12,3,0.290960193,12062.7034,2931.289362,-0.99926413,39.58913948
1.71E+12,3,0.293484961,11495.56682,2931.288894,-0.999823066,38.24373198
1.71E+12,3,0.29594207,10952.474,2931.288459,-1,36.91255755
1.71E+12,3,0.298331009,10433.15843,2931.288061,-1,35.59685093
1.71E+12,3,0.300651428,9937.305082,2931.287701,-1,34.29777181
1.71E+12,3,0.302903138,9464.553792,2931.287379,-1,33.01643581
1.71E+12,3,0.305086103,9014.502583,2931.287094,-1,31.7539118
1.71E+12,3,0.307200432,8586.711064,2931.286845,-1,30.51121945
1.71E+12,3,0.309246376,8180.703805,2931.286631,-1,29.28932699
1.71E+12,3,0.311224319,7795.973671,2931.286455,-1,28.08914908
1.71E+12,3,0.313134791,7431.98488,2931.286315,-1,26.91154501
1.71E+12,3,0.314978487,7088.175401,2931.286212,-1,25.75731704
1.71E+12,3,0.316756254,6763.958555,2931.286141,-1,24.627209
1.71E+12,3,0.318469055,6458.723871,2931.286101,-1,23.52190505
1.71E+12,3,0.320117946,6171.837961,2931.286092,-1,22.44202878
1.71E+12,3,0.321704062,5902.64598,2931.286114,-1,21.38814243
1.71E+12,3,0.323228603,5650.475937,2931.286165,-1,20.36074639
1.71E+12,3,0.324692819,5414.644662,2931.286244,-1,19.36027893
1.71E+12,3,0.326098001,5194.463289,2931.286346,-1,18.38711613
1.71E+12,3,0.327445474,4989.243851,2931.286469,-1,17.44157206
1.71E+12,3,0.328736596,4798.302486,2931.286612,-1,16.52389916
1.71E+12,3,0.329972754,4620.961536,2931.286775,-1,15.63428883
1.71E+12,3,0.331155361,4456.551277,2931.286958,-1,14.77287228
1.71E+12,3,0.332285841,4304.411886,2931.287156,-1,13.93972148
1.71E+12,3,0.333365619,4163.896775,2931.287368,-1,13.13485041
1.71E+12,3,0.334396115,4034.373948,2931.28759,-1,12.35821642
1.71E+12,3,0.335378751,3915.225321,2931.287822,-1,11.60972178
1.71E+12,3,0.336314947,3805.849651,2931.288062,-1,10.88921546
1.71E+12,3,0.337206118,3705.665037,2931.288311,-1,10.19649494
1.71E+12,3,0.338053663,3614.107988,2931.288568,-1,9.531308277
1.71E+12,3,0.338858966,3530.634119,2931.288829,-1,8.893356242
1.71E+12,3,0.339623398,3454.720049,2931.289092,-1,8.282294595
1.71E+12,3,0.340348314,3385.862007,2931.289355,-1,7.697736458
1.71E+12,3,0.341035051,3323.574914,2931.289618,-1,7.139254786
1.71E+12,3,0.341684922,3267.394281,2931.289882,-1,6.606384918
1.71E+12,3,0.342299212,3216.876293,2931.290146,-1,6.098627187
1.71E+12,3,0.342879176,3171.597853,2931.290409,-1,5.615449595
1.71E+12,3,0.343426031,3131.156559,2931.290667,-1,5.156290513
1.71E+12,3,0.34394095,3095.170571,2931.29092,-1,4.720561421
1.71E+12,3,0.34442506,3063.278373,2931.291166,-1,4.307649653
1.71E+12,3,0.344879437,3035.138442,2931.291409,-1,3.91692114
1.71E+12,3,0.345305103,3010.427217,2931.291649,-1,3.547723153
1.71E+12,3,0.345703028,2988.840511,2931.291885,-1,3.199387004
1.71E+12,3,0.346074133,2970.092782,2931.292117,-1,2.871230728
1.71E+12,3,0.346419292,2953.916654,2931.292343,-1,2.562561705
1.71E+12,3,0.346739332,2940.062168,2931.292565,-1,2.272679226
1.71E+12,3,0.34703503,2928.296296,2931.292786,-1,2.000876997
1.71E+12,3,0.347307114,2918.402175,2931.293007,-1,1.746445557
1.71E+12,3,0.347556252,2910.178566,2931.293228,-1,1.508674613
1.71E+12,3,0.347783058,2903.439032,2931.293449,-1,1.286855278
1.71E+12,3,0.347988093,2898.011376,2931.293669,-1,1.080282207
1.71E+12,3,0.34817186,2893.738437,2931.293891,-1,0.888255629
1.71E+12,3,0.348334815,2890.475621,2931.294118,-1,0.710083254
1.71E+12,3,0.348477364,2888.088592,2931.294351,-1,0.545082067
1.71E+12,3,0.348599868,2886.452904,2931.294593,-1,0.392580001
1.71E+12,3,0.348702641,2885.455142,2931.294842,-1,0.251917475
1.71E+12,3,0.348785952,2884.993943,2931.2951,-1,0.122448805
1.71E+12,3,0.348850029,2884.977526,2931.295369,-1,0.00354349
1.71E+12,3,0.348895063,2885.321669,2931.295652,-1,-0.105412645
1.71E+12,3,0.348921209,2885.952616,2931.295952,-1,-0.205016429
1.71E+12,3,0.348928577,2886.83325,2931.296269,-1,-0.295846458
1.71E+12,3,0.348917213,2887.959256,2931.296605,-1,-0.378462345
1.71E+12,3,0.348887111,2889.330226,2931.29696,-1,-0.453404084
1.71E+12,3,0.348838226,2890.94684,2931.297337,-1,-0.521191553
1.71E+12,3,0.348770495,2892.810142,2931.297737,-1,-0.582324126
1.71E+12,3,0.34868384,2894.92131,2931.298162,-1,-0.637280406
1.71E+12,3,0.348578181,2897.281471,2931.298612,-1,-0.686518072
1.71E+12,3,0.348453445,2899.891584,2931.29909,-1,-0.730473828
1.71E+12,3,0.348309569,2902.752393,2931.299595,-1,-0.769563454
1.71E+12,3,0.348146501,2905.864404,2931.300129,-1,-0.804181949
1.71E+12,3,0.347964206,2909.227825,2931.300691,-1,-0.834703766
1.71E+12,3,0.347762672,2912.842483,2931.301282,-1,-0.861483121
1.71E+12,3,0.347541914,2916.707756,2931.301901,-1,-0.884854379
1.71E+12,3,0.347301986,2920.822511,2931.302549,-1,-0.905132506
1.71E+12,3,0.347042978,2925.185031,2931.303228,-1,-0.922613573
1.71E+12,3,0.34676503,2929.792948,2931.303937,-1,-0.93757532
1.71E+12,3,0.346468328,2934.6432,2931.304677,-1,-0.950277752
1.71E+12,3,0.346153107,2939.732048,2931.305444,-1,-0.960963775
1.71E+12,3,0.345819651,2945.055085,2931.306235,-1,-0.969859861
1.71E+12,3,0.345468285,2950.607254,2931.30705,-1,-0.977176727
1.71E+12,3,0.345099351,2956.383175,2931.30789,-1,-0.983110033
1.71E+12,3,0.34471318,2962.37814,2931.308752,-1,-0.987841078
1.71E+12,3,0.344310097,2968.589422,2931.309637,-1,-0.9915375
1.71E+12,3,0.343890445,2975.017606,2931.310539,-1,-0.994353964
1.71E+12,3,0.343454592,2981.668109,2931.311456,-1,-0.996432841
1.71E+12,3,0.343002928,2988.55197,2931.312386,-1,-0.997904863
1.71E+12,3,0.342535869,2995.68562,2931.313327,-1,-0.998889756
1.71E+12,3,0.34205385,3003.090449,2931.314278,-1,-0.999496839
1.71E+12,3,0.341557331,3010.791854,2931.315237,-1,-0.999825593
1.71E+12,3,0.341046799,3018.818366,2931.316199,-1,-0.999966194
1.71E+12,3,0.340522772,3027.201605,2931.317159,-1,-1
1.71E+12,3,0.339985793,3035.976501,2931.318114,-1,-1
1.71E+12,3,0.339436433,3045.181548,2931.319061,-1,-1
1.71E+12,3,0.338875281,3054.856567,2931.319999,-1,-1
1.71E+12,3,0.33830295,3065.040875,2931.320923,-1,-1
1.71E+12,3,0.337720062,3075.774916,2931.321827,-1,-1
1.71E+12,3,0.337127251,3087.101596,2931.322706,-1,-1
1.71E+12,3,0.336525148,3099.066808,2931.323558,-1,-1
1.71E+12,3,0.335914381,3111.71935,2931.32438,-1,-1
1.71E+12,3,0.335295563,3125.111161,2931.325171,-1,-1
1.71E+12,3,0.334669291,3139.297808,2931.325923,-1,-1
1.71E+12,3,0.334036137,3154.338624,2931.326633,-1,-1
1.71E+12,3,0.33339664,3170.298557,2931.327297,-1,-1
1.71E+12,3,0.3327513,3187.249997,2931.327912,-1,-1
1.71E+12,3,0.33210057,3205.272321,2931.328478,-1,-1
1.71E+12,3,0.331444848,3224.451207,2931.32899,-1,-1
1.71E+12,3,0.330784469,3244.878465,2931.329445,-1,-1
1.71E+12,3,0.330119701,3266.651921,2931.329837,-1,-1
1.71E+12,3,0.32945073,3289.875712,2931.330165,-1,-1
1.71E+12,3,0.328777659,3314.660371,2931.330427,-1,-1
1.71E+12,3,0.328100501,3341.12254,2931.330622,-1,-1
1.71E+12,3,0.32741918,3369.384964,2931.330748,-1,-1
1.71E+12,3,0.326733523,3399.576298,2931.330802,-1,-1
1.71E+12,3,0.326043255,3431.83118,2931.33078,-1,-1
1.71E+12,3,0.325347994,3466.29033,2931.330683,-1,-1
1.71E+12,3,0.324647247,3503.100277,2931.33051,-1,-1
1.71E+12,3,0.323940404,3542.41302,2931.33026,-1,-1
1.71E+12,3,0.323226743,3584.3858,2931.329934,-1,-1
1.71E+12,3,0.322505423,3629.180997,2931.329531,-1,-1
1.71E+12,3,0.321775484,3676.965862,2931.329049,-1,-1
1.71E+12,3,0.321035847,3727.912036,2931.32849,-1,-1
1.71E+12,3,0.320285313,3782.195022,2931.327854,-1,-1
1.71E+12,3,0.319522566,3839.993621,2931.32714,-1,-1
1.71E+12,3,0.318746173,3901.487386,2931.326349,-1,-1
1.71E+12,3,0.3179546,3966.852582,2931.325482,-1,-1
1.71E+12,3,0.31714621,4036.262402,2931.324543,-1,-1
1.71E+12,3,0.316319276,4109.888447,2931.323533,-1,-1
1.71E+12,3,0.315471988,4187.900199,2931.322454,-1,-1
1.71E+12,3,0.314602457,4270.46492,2931.321305,-1,-1
1.71E+12,3,0.313708732,4357.746924,2931.320089,-1,-1
1.71E+12,3,0.312788809,4449.906712,2931.318807,-1,-1
1.71E+12,3,0.311840648,4547.100146,2931.317466,-1,-1
1.71E+12,3,0.310862188,4649.477615,2931.31607,-1,-1
1.71E+12,3,0.309851357,4757.183184,2931.31462,-1,-1
1.71E+12,3,0.308806087,4870.353686,2931.313119,-1,-1
1.71E+12,3,0.307724325,4989.117839,2931.311569,-1,-1
1.71E+12,3,0.306604034,5113.595358,2931.309972,-1,-1
1.71E+12,3,0.305443204,5243.896044,2931.308333,-1,-1
1.71E+12,3,0.30423986,5380.11883,2931.306659,-1,-1
1.71E+12,3,0.302992083,5522.350799,2931.304952,-1,-1
1.71E+12,3,0.301698021,5670.666238,2931.303219,-1,-1
1.71E+12,3,0.300355903,5825.125717,2931.30146,-1,-1
1.71E+12,3,0.298964049,5985.775188,2931.29968,-1,-1
1.71E+12,3,0.297520884,6152.645113,2931.297881,-1,-1
1.71E+12,3,0.296024951,6325.749609,2931.296069,-1,-1
1.71E+12,3,0.294474926,6505.085627,2931.29425,-1,-1
1.71E+12,3,0.292869628,6690.632192,2931.292428,-1,-1
1.71E+12,3,0.291208034,6882.349688,2931.290607,-1,-1
1.71E+12,3,0.289489292,7080.179185,2931.288787,-1,-1
1.71E+12,3,0.287712736,7284.041832,2931.286974,-1,-1
1.71E+12,3,0.285877894,7493.838316,2931.285171,-1,-1
1.71E+12,3,0.283984503,7709.448405,2931.283385,-1,-1
1.71E+12,3,0.282032518,7930.730528,2931.281617,-1,-1
1.71E+12,3,0.280022133,8157.521407,2931.27987,-1,-1
1.71E+12,3,0.277953792,8389.635788,2931.278145,-1,-1
1.71E+12,3,0.275828189,8626.866347,2931.276447,-1,-1
1.71E+12,3,0.273646277,8868.983654,2931.27478,-1,-1
1.71E+12,3,0.271409276,9115.736168,2931.273148,-1,-1
1.71E+12,3,0.269118684,9366.850339,2931.271554,-1,-1
1.71E+12,3,0.266776277,9622.030846,2931.269997,-1,-1
1.71E+12,3,0.264384113,9880.960941,2931.268477,-1,-1
1.71E+12,3,0.261944533,10143.30287,2931.266995,-1,-1
1.71E+12,3,0.259460158,10408.6984,2931.265555,-1,-1
1.71E+12,3,0.256933883,10676.76953,2931.264158,-1,-1
1.71E+12,3,0.254368873,10947.11917,2931.262807,-1,-1
1.71E+12,3,0.251768563,11219.332,2931.261503,-1,-1
1.71E+12,3,0.249136645,11492.97541,2931.260245,-1,-1
1.71E+12,3,0.246477064,11767.60047,2931.259033,-1,-1
1.71E+12,3,0.243794007,12042.74311,2931.257869,-1,-1
1.71E+12,3,0.241091897,12317.92523,2931.256752,-1,-1
1.71E+12,3,0.238375379,12592.65605,2931.255686,-1,-1
1.71E+12,3,0.235649309,12866.4334,2931.254668,-1,-1
1.71E+12,3,0.232918741,13138.74517,2931.253696,-1,-1
1.71E+12,3,0.230188911,13409.07081,2931.252772,-1,-1
1.71E+12,3,0.22746522,13676.88291,2931.251893,-1,-1
1.71E+12,3,0.224753221,13941.64874,2931.251062,-1,-1
1.71E+12,3,0.222058596,14202.83198,2931.250278,-1,-1
1.71E+12,3,0.219387142,14459.89438,2931.249541,-1,-1
1.71E+12,3,0.216744749,14712.29753,2931.248849,-1,-1
1.71E+12,3,0.214137376,14959.50464,2931.248202,-1,-1
1.71E+12,3,0.211571034,15200.98231,2931.247598,-1,-1
1.71E+12,3,0.20905176,15436.20237,2931.247038,-1,-1
1.71E+12,3,0.206585592,15664.64371,2931.246521,-1,-1
1.71E+12,3,0.204178551,15885.79406,2931.246045,-1,-1
1.71E+12,3,0.201836616,16099.15177,2931.245609,-1,-1
1.71E+12,3,0.199565696,16304.22767,2931.245212,-1,-1
1.71E+12,3,0.197371613,16500.54674,2931.244852,-1,-1
1.71E+12,3,0.195260066,16687.64993,2931.244529,-1,-1
1.71E+12,3,0.193236612,16865.09586,2931.244241,-1,-1
1.71E+12,3,0.191306626,17032.46259,2931.243988,-1,-1
1.71E+12,3,0.189475264,17189.34956,2931.243768,-1,-1
1.71E+12,3,0.187747456,17335.37894,2931.24358,-1,-1
1.71E+12,3,0.186127885,17470.19707,2931.243425,-1,-1
1.71E+12,3,0.184620955,17593.47677,2931.243302,-1,-1
1.71E+12,3,0.183230755,17704.92087,2931.243209,-1,-1
1.71E+12,3,0.181961068,17804.26139,2931.243148,-1,-1
1.71E+12,3,0.180815357,17891.25878,2931.243119,-1,-1
1.71E+12,3,0.179796752,17965.70321,2931.24312,-1,-1
1.71E+12,3,0.178908043,18027.41443,2931.243152,-1,-1
1.71E+12,3,0.178151665,18076.24286,2931.243212,-1,-1
1.71E+12,3,0.177529686,18112.07065,2931.243301,-1,-1
1.71E+12,3,0.177043786,18134.81242,2931.243421,-1,-1
1.71E+12,3,0.17669525,18144.41582,2931.243572,-1,-1
1.71E+12,3,0.176484959,18140.86176,2931.243754,-1,-1
1.71E+12,3,0.176413388,18124.16428,2931.243967,-1,-1
1.71E+12,3,0.176480609,18094.37036,2931.244209,-1,-1
1.71E+12,3,0.176686297,18051.55976,2931.244482,-1,-1
1.71E+12,3,0.17702973,17995.84484,2931.244786,-1,-1
1.71E+12,3,0.177509784,17927.37033,2931.245124,-1,-1
1.71E+12,3,0.17812493,17846.31299,2931.245494,-1,-1
1.71E+12,3,0.178873236,17752.88096,2931.245896,-1,-1
1.71E+12,3,0.179752373,17647.3131,2931.24633,-1,-1
1.71E+12,3,0.180759615,17529.87809,2931.246799,-1,-1
1.71E+12,3,0.181891856,17400.87351,2931.247304,-1,-1
1.71E+12,3,0.183145617,17260.62473,2931.247844,-1,-1
1.71E+12,3,0.18451706,17109.48374,2931.248419,-1,-1
1.71E+12,3,0.186002003,16947.82782,2931.249028,-1,-1
1.71E+12,3,0.187595935,16776.0583,2931.249673,-1,-1
1.71E+12,3,0.189294036,16594.59903,2931.250356,-1,-1
1.71E+12,3,0.191091198,16403.89465,2931.251077,-1,-1
1.71E+12,3,0.192982046,16204.40908,2931.251836,-1,-1
1.71E+12,3,0.194960947,15996.62385,2931.25263,-1,-1
1.71E+12,3,0.197022034,15781.03644,2931.253458,-1,-1
1.71E+12,3,0.19915923,15558.15843,2931.254323,-1,-1
1.71E+12,3,0.201366276,15328.51347,2931.255226,-1,-1
1.71E+12,3,0.203636755,15092.63552,2931.256166,-1,-1
1.71E+12,3,0.205964097,14851.0673,2931.257143,-1,-1
1.71E+12,3,0.208341609,14604.35843,2931.258154,-1,-1
1.71E+12,3,0.210762495,14353.06352,2931.259198,-1,-1
1.71E+12,3,0.213219888,14097.74024,2931.260276,-1,-1
1.71E+12,3,0.215706875,13838.94747,2931.261388,-1,-1
1.71E+12,3,0.218216511,13577.24358,2931.262534,-1,-1
1.71E+12,3,0.220741849,13313.18466,2931.263711,-1,-1
1.71E+12,3,0.223275964,13047.32258,2931.264918,-1,-1
1.71E+12,3,0.225811986,12780.20313,2931.266153,-1,-1
1.71E+12,3,0.228343119,12512.36433,2931.267414,-1,-1
1.71E+12,3,0.230862674,12244.33469,2931.268701,-1,-1
1.71E+12,3,0.233364087,11976.63162,2931.270014,-1,-1
1.71E+12,3,0.235840959,11709.75974,2931.271351,-1,-1
1.71E+12,3,0.238287072,11444.20947,2931.272708,-1,-1
1.71E+12,3,0.24069641,11180.45563,2931.274083,-1,-1
1.71E+12,3,0.24306318,10918.95626,2931.275474,-1,-1
1.71E+12,3,0.245381822,10660.15141,2931.276879,-1,-1
1.71E+12,3,0.247647026,10404.46214,2931.278296,-1,-1
1.71E+12,3,0.249853743,10152.28953,2931.279722,-1,-1
1.71E+12,3,0.251997198,9904.013791,2931.281155,-1,-1
1.71E+12,3,0.254072911,9659.99342,2931.282591,-1,-1
1.71E+12,3,0.256076708,9420.564485,2931.284027,-1,-1
1.71E+12,3,0.258004737,9186.040022,2931.285463,-1,-1
1.71E+12,3,0.259853477,8956.709554,2931.286896,-1,-1
1.71E+12,3,0.261619743,8732.838709,2931.288322,-1,-1
1.71E+12,3,0.263300696,8514.668952,2931.289737,-1,-1
1.71E+12,3,0.264893846,8302.417445,2931.29114,-1,-1
1.71E+12,3,0.266397047,8096.276996,2931.292527,-1,-1
1.71E+12,3,0.26780851,7896.416095,2931.293898,-1,-1
1.71E+12,3,0.269126793,7702.97905,2931.295251,-1,-1
1.71E+12,3,0.27035081,7516.086221,2931.296581,-1,-1
1.71E+12,3,0.27147982,7335.834348,2931.297886,-1,-1
1.71E+12,3,0.272513427,7162.296983,2931.299163,-1,-1
1.71E+12,3,0.27345157,6995.525,2931.30041,-1,-1
1.71E+12,3,0.274294519,6835.547196,2931.301628,-1,-1
1.71E+12,3,0.275042861,6682.370933,2931.302814,-1,-1
1.71E+12,3,0.275697498,6535.98287,2931.303965,-1,-1
1.71E+12,3,0.27625963,6396.349791,2931.305078,-1,-1
1.71E+12,3,0.276730741,6263.419468,2931.306152,-1,-1
1.71E+12,3,0.277112591,6137.121553,2931.307187,-1,-1
1.71E+12,3,0.277407204,6017.368522,2931.308184,-1,-1
1.71E+12,3,0.277616845,5904.056703,2931.30914,-1,-1
1.71E+12,3,0.27774401,5797.067402,2931.310052,-1,-1
1.71E+12,3,0.277791393,5696.268131,2931.310921,-1,-1
1.71E+12,3,0.277761879,5601.513786,2931.311746,-1,-1
1.71E+12,3,0.277658524,5512.647713,2931.312528,-1,-1
1.71E+12,3,0.277484542,5429.502763,2931.313267,-1,-1
1.71E+12,3,0.27724329,5351.902306,2931.313962,-1,-1
1.71E+12,3,0.276938254,5279.661289,2931.314612,-1,-1
1.71E+12,3,0.276573028,5212.587294,2931.315218,-1,-1
1.71E+12,3,0.276151303,5150.48154,2931.315781,-1,-1
1.71E+12,3,0.275676851,5093.139796,2931.316302,-1,-1
1.71E+12,3,0.275153518,5040.353154,2931.316783,-1,-1
1.71E+12,3,0.274585224,4991.908805,2931.317224,-1,-1
1.71E+12,3,0.273975969,4947.590783,2931.317627,-1,-1
1.71E+12,3,0.273329837,4907.180254,2931.317991,-1,-1
1.71E+12,3,0.272650953,4870.455609,2931.31832,-1,-1
1.71E+12,3,0.271943436,4837.192714,2931.318613,-1,-1
1.71E+12,3,0.271211372,4807.16519,2931.318874,-1,-1
1.71E+12,3,0.270458792,4780.145588,2931.319104,-1,-1
1.71E+12,3,0.269689652,4755.907431,2931.319306,-1,-1
1.71E+12,3,0.268907818,4734.227108,2931.31948,-1,-1
1.71E+12,3,0.268117053,4714.885958,2931.319627,-1,-1
1.71E+12,3,0.267321009,4697.671896,2931.319751,-1,-1
1.71E+12,3,0.266523216,4682.380084,2931.319855,-1,-1
1.71E+12,3,0.265727074,4668.813343,2931.31994,-1,-1
1.71E+12,3,0.264935839,4656.782513,2931.32001,-1,-1
1.71E+12,3,0.264152619,4646.109078,2931.320065,-1,-1
1.71E+12,3,0.263380367,4636.626618,2931.320107,-1,-1
1.71E+12,3,0.262621878,4628.178881,2931.320141,-1,-1
1.71E+12,3,0.261879793,4620.618534,2931.320171,-1,-1
1.71E+12,3,0.261156588,4613.806869,2931.320197,-1,-1
1.71E+12,3,0.260454571,4607.614135,2931.32022,-1,-1
1.71E+12,3,0.259775874,4601.919423,2931.320242,-1,-1
1.71E+12,3,0.259122449,4596.610289,2931.320264,-1,-1
1.71E+12,3,0.258496079,4591.582664,2931.32029,-1,-1
1.71E+12,3,0.257898372,4586.739158,2931.320321,-1,-1
1.71E+12,3,0.257330767,4581.98789,2931.320358,-1,-1
1.71E+12,3,0.256794522,4577.243567,2931.320402,-1,-1
1.71E+12,3,0.256290721,4572.428437,2931.320454,-1,-1
1.71E+12,3,0.255820272,4567.472505,2931.320517,-1,-1
1.71E+12,3,0.255383915,4562.313595,2931.320593,-1,-1
1.71E+12,3,0.254982229,4556.896907,2931.320683,-1,-1
1.71E+12,3,0.254615626,4551.174868,2931.320785,-1,-1
1.71E+12,3,0.254284356,4545.107273,2931.320901,-1,-1
1.71E+12,3,0.253988505,4538.660977,2931.321031,-1,-1
1.71E+12,3,0.253728007,4531.809808,2931.321179,-1,-1
1.71E+12,3,0.253502645,4524.534136,2931.321344,-1,-1
1.71E+12,3,0.253312066,4516.820363,2931.321525,-1,-1
1.71E+12,3,0.253155785,4508.660675,2931.32172,-1,-1
1.71E+12,3,0.253033199,4500.05276,2931.321931,-1,-1
1.71E+12,3,0.25294359,4490.999385,2931.32216,-1,-1
1.71E+12,3,0.252886139,4481.507857,2931.322405,-1,-1
1.71E+12,3,0.252859931,4471.589683,2931.322666,-1,-1
1.71E+12,3,0.252863961,4461.260357,2931.322939,-1,-1
1.71E+12,3,0.252897142,4450.539134,2931.323225,-1,-1
1.71E+12,3,0.252958316,4439.448807,2931.323524,-1,-1
1.71E+12,3,0.253046252,4428.017281,2931.323836,-1,-1
1.71E+12,3,0.25315965,4416.279896,2931.324159,-1,-1
1.71E+12,3,0.253297142,4404.277168,2931.324491,-1,-1
1.71E+12,3,0.253457302,4392.051919,2931.32483,-1,-1
1.71E+12,3,0.253638652,4379.64856,2931.325173,-1,-1
1.71E+12,3,0.253839673,4367.112069,2931.325522,-1,-1
1.71E+12,3,0.254058809,4354.487682,2931.325877,-1,-1
1.71E+12,3,0.254294471,4341.820728,2931.326233,-1,-1
1.71E+12,3,0.254545041,4329.156385,2931.326589,-1,-1
1.71E+12,3,0.254808875,4316.539435,2931.326943,-1,-1
1.71E+12,3,0.255084311,4304.014063,2931.327291,-1,-1
1.71E+12,3,0.255369673,4291.623736,2931.327635,-1,-1
1.71E+12,3,0.255663277,4279.411203,2931.327971,-1,-1
1.71E+12,3,0.255963431,4267.418907,2931.328298,-1,-1
1.71E+12,3,0.256268436,4255.690585,2931.328612,-1,-1
1.71E+12,3,0.256576587,4244.273661,2931.328912,-1,-1
1.71E+12,3,0.256886177,4233.220827,2931.329196,-1,-1
1.71E+12,3,0.257195505,4222.590856,2931.329461,-1,-1
1.71E+12,3,0.257502877,4212.449475,2931.329707,-1,-1
1.71E+12,3,0.257806613,4202.873917,2931.329932,-1,-1
1.71E+12,3,0.258105044,4193.955685,2931.330136,-1,-1
1.71E+12,3,0.258396518,4185.798866,2931.330315,-1,-1
1.71E+12,3,0.258679401,4178.519928,2931.330468,-1,-1
1.71E+12,3,0.258952071,4172.24707,2931.330595,-1,-1
1.71E+12,3,0.259212924,4167.116791,2931.330692,-1,-1
1.71E+12,3,0.259460369,4163.274329,2931.33076,-1,-1
1.71E+12,3,0.259692828,4160.874384,2931.330799,-1,-1
1.71E+12,3,0.259908734,4160.080003,2931.330807,-1,-1
1.71E+12,3,0.260106528,4161.066292,2931.330783,-1,-1
1.71E+12,3,0.260284658,4164.021347,2931.330726,-1,-1
1.71E+12,3,0.260441571,4169.145498,2931.330635,-1,-1
1.71E+12,3,0.260575709,4176.650397,2931.330511,-1,-1
1.71E+12,3,0.260685515,4186.760992,2931.330354,-1,-1
1.71E+12,3,0.260769437,4199.717895,2931.330162,-1,-1
1.71E+12,3,0.260825917,4215.776588,2931.329937,-1,-1
1.71E+12,3,0.260853394,4235.208078,2931.329679,-1,-1
1.71E+12,3,0.260850302,4258.29948,2931.329388,-1,-1
1.71E+12,3,0.260815074,4285.352948,2931.329068,-1,-1
1.71E+12,3,0.26074614,4316.685933,2931.328719,-1,-1
1.71E+12,3,0.260641934,4352.629067,2931.328343,-1,-1
1.71E+12,3,0.260500897,4393.511586,2931.32794,-1,-1
1.71E+12,3,0.260321479,4439.662479,2931.327511,-1,-1
1.71E+12,3,0.260102134,4491.423904,2931.327059,-1,-1
1.71E+12,3,0.25984132,4549.152264,2931.326585,-1,-1
1.71E+12,3,0.2595375,4613.217508,2931.326093,-1,-1
1.71E+12,3,0.259189152,4684.001896,2931.325584,-1,-1
1.71E+12,3,0.258794767,4761.899497,2931.325058,-1,-1
1.71E+12,3,0.25835285,4847.316132,2931.324518,-1,-1
1.71E+12,3,0.257861924,4940.668988,2931.323969,-1,-1
1.71E+12,3,0.257320533,5042.38422,2931.323414,-1,-1
1.71E+12,3,0.256727243,5152.895106,2931.322855,-1,-1
1.71E+12,3,0.256080648,5272.641845,2931.322293,-1,-1
1.71E+12,3,0.255379373,5402.070719,2931.321731,-1,-1
1.71E+12,3,0.254622073,5541.632891,2931.321173,-1,-1
1.71E+12,3,0.25380744,5691.783318,2931.320624,-1,-1
1.71E+12,3,0.25293421,5852.979147,2931.320085,-1,-1
1.71E+12,3,0.252001165,6025.676837,2931.319557,-1,-1
1.71E+12,3,0.251007145,6210.329666,2931.319045,-1,-1
1.71E+12,3,0.249951053,6407.386259,2931.318551,-1,-1
1.71E+12,3,0.248831857,6617.287761,2931.318079,-1,-1
1.71E+12,3,0.247648603,6840.464833,2931.317633,-1,-1
1.71E+12,3,0.24640042,7077.336201,2931.317216,-1,-1
1.71E+12,3,0.245086519,7328.306843,2931.316831,-1,-1
1.71E+12,3,0.243706211,7593.765561,2931.316482,-1,-1
1.71E+12,3,0.242258906,7874.08284,2931.316171,-1,-1
1.71E+12,3,0.240744121,8169.608603,2931.315901,-1,-1
1.71E+12,3,0.239161503,8480.669906,2931.315675,-1,-1
1.71E+12,3,0.23751083,8807.568545,2931.315495,-1,-1
1.71E+12,3,0.235792008,9150.579098,2931.315363,-1,-1
1.71E+12,3,0.234005063,9509.947031,2931.315281,-1,-1
1.71E+12,3,0.232150158,9885.885778,2931.31525,-1,-1
1.71E+12,3,0.230227603,10278.57381,2931.315273,-1,-1
1.71E+12,3,0.22823783,10688.15581,2931.315351,-1,-1
1.71E+12,3,0.226181387,11114.74224,2931.315486,-1,-1
1.71E+12,3,0.224058942,11558.40693,2931.315678,-1,-1
1.71E+12,3,0.221871282,12019.18589,2931.315929,-1,-1
1.71E+12,3,0.219619309,12497.07789,2931.316239,-1,-1
1.71E+12,3,0.217304052,12992.04599,2931.31661,-1,-1
1.71E+12,3,0.214926674,13504.01091,2931.317041,-1,-1
1.71E+12,3,0.212488474,14032.83785,2931.317534,-1,-1
1.71E+12,3,0.209990888,14578.33538,2931.318085,-1,-1
1.71E+12,3,0.207435483,15140.26172,2931.318695,-1,-1
1.71E+12,3,0.204823949,15718.32198,2931.319365,-1,-1
1.71E+12,3,0.20215811,16312.16098,2931.320094,-1,-1
1.71E+12,3,0.199439942,16921.36343,2931.320879,-1,-1
1.71E+12,3,0.196671577,17545.45853,2931.321716,-1,-1
1.71E+12,3,0.193855292,18183.92107,2931.322605,-1,-1
1.71E+12,3,0.190993503,18836.17194,2931.323545,-1,-1
1.71E+12,3,0.188088765,19501.57863,2931.324533,-1,-1
1.71E+12,3,0.185143763,20179.45585,2931.325565,-1,-1
1.71E+12,3,0.182161333,20869.06599,2931.326637,-1,-1
1.71E+12,3,0.179144468,21569.62,2931.327746,-1,-1
1.71E+12,3,0.176096298,22280.27909,2931.328889,-1,-1
1.71E+12,3,0.173020079,23000.15638,2931.330063,-1,-1
1.71E+12,3,0.169919201,23728.31847,2931.331263,-1,-1
1.71E+12,3,0.166797174,24463.78746,2931.332484,-1,-1
1.71E+12,3,0.163657605,25205.54335,2931.333722,-1,-1
1.71E+12,3,0.160504195,25952.52634,2931.334974,-1,-1
1.71E+12,3,0.157340731,26703.63933,2931.336237,-1,-1
1.71E+12,3,0.154171081,27457.75063,2931.337502,-1,-1
1.71E+12,3,0.150999187,28213.69681,2931.338766,-1,-1
1.71E+12,3,0.147829052,28970.28576,2931.340023,-1,-1
1.71E+12,3,0.144664742,29726.29985,2931.341269,-1,-1
1.71E+12,3,0.14151037,30480.49925,2931.342499,-1,-1
1.71E+12,3,0.138370095,31231.62535,2931.343708,-1,-1
1.71E+12,3,0.135248112,31978.4043,2931.344891,-1,-1
1.71E+12,3,0.132148639,32719.55074,2931.346043,-1,-1
1.71E+12,3,0.129075914,33453.77143,2931.347158,-1,-1
1.71E+12,3,0.126034181,34179.76911,2931.348231,-1,-1
1.71E+12,3,0.123027687,34896.24632,2931.349259,-1,-1
1.71E+12,3,0.120060672,35601.90924,2931.350236,-1,-1
1.71E+12,3,0.117137366,36295.47164,2931.351158,-1,-1
1.71E+12,3,0.114261974,36975.65871,2931.352019,-1,-1
1.71E+12,3,0.111438674,37641.21095,2931.352814,-1,-1
1.71E+12,3,0.108671611,38290.88806,2931.353539,-1,-1
1.71E+12,3,0.105964882,38923.47271,2931.354191,-1,-1
1.71E+12,3,0.103322533,39537.77437,2931.354766,-1,-1
1.71E+12,3,0.100748548,40132.63287,2931.355261,-1,-1
1.71E+12,3,0.098246853,40706.92196,2931.355673,-1,-1
1.71E+12,3,0.095821303,41259.55276,2931.355996,-1,-1
1.71E+12,3,0.093475678,41789.4771,2931.356228,-0.999869674,-0.999954187
1.71E+12,3,0.091213681,42295.69071,2931.356368,-0.999457974,-0.99976365
1.71E+12,3,0.089038926,42777.23624,2931.356414,-0.998732631,-0.999318135
1.71E+12,3,0.086954936,43233.2062,2931.356364,-0.997659655,-0.998495441
1.71E+12,3,0.084965137,43662.74563,2931.356215,-0.99620317,-0.997160753
1.71E+12,3,0.083072851,44065.05466,2931.355964,-0.99432525,-0.995165925
1.71E+12,3,0.081281295,44439.39083,2931.355611,-0.991985783,-0.992348712