Shimmer_86BB_TimestampSync_Unix_CAL,Shimmer_86BB_GSR_Range_LPF_CAL,Shimmer_86BB_GSR_Skin_Conductance_LPF_CAL,Shimmer_86BB_GSR_Skin_Resistance_LPF_CAL,Shimmer_86BB_PPG_A13_LPF_CAL,Shimmer_86BB_PPG_IBI_LPF_CAL,Shimmer_86BB_PPGtoHR_LPF_CAL
1.71E+12,2,2.620512821,381.6046967,2935.531136,-1,114.6268657
1.71E+12,2,2.620512821,381.6046967,2935.531136,-1,114.6268657
1.71E+12,2,2.620512822,381.6046965,2935.531136,-1,114.6268657
1.71E+12,2,2.620512828,381.6046956,2935.531136,-1,114.6268657
1.71E+12,2,2.62051284,381.6046939,2935.531136,-1,114.6268657
1.71E+12,2,2.620512857,381.6046913,2935.531136,-1,114.6268657
1.71E+12,2,2.620512881,381.6046878,2935.531136,-1,114.6268657
1.71E+12,2,2.620512913,381.6046832,2935.531136,-1,114.6268657
1.71E+12,2,2.620512955,381.6046771,2935.531136,-1,114.6268657
1.71E+12,2,2.620513011,381.6046689,2935.531135,-1,114.6268657
1.71E+12,2,2.620513085,381.6046582,2935.531133,-1,114.6268657
1.71E+12,2,2.620513177,381.6046448,2935.531129,-1,114.6268657
1.71E+12,2,2.620513289,381.6046285,2935.531124,-1,114.6268657
1.71E+12,2,2.620513422,381.6046092,2935.531117,-1,114.6268657
1.71E+12,2,2.620513578,381.6045865,2935.531109,-1,114.6268657
1.71E+12,2,2.620513765,381.6045591,2935.531099,-1,114.6268657
1.71E+12,2,2.620513997,381.6045255,2935.531087,-1,114.6268657
1.71E+12,2,2.620514278,381.6044846,2935.531074,-1,114.6268657
1.71E+12,2,2.62051461,381.6044363,2935.53106,-1,114.6268657
1.71E+12,2,2.620514997,381.6043799,2935.531046,-1,114.6268657
1.71E+12,2,2.620515441,381.6043155,2935.531034,-1,114.6268657
1.71E+12,2,2.620515942,381.6042426,2935.531025,-1,114.6268657
1.71E+12,2,2.620516504,381.6041608,2935.53102,-1,114.6268657
1.71E+12,2,2.62051713,381.6040697,2935.531018,-1,114.6268657
1.71E+12,2,2.620517825,381.6039686,2935.531018,-1,114.6268657
1.71E+12,2,2.620518593,381.603857,2935.531015,-1,114.6268657
1.71E+12,2,2.620519439,381.6037339,2935.531005,-1,114.6268657
1.71E+12,2,2.620520369,381.6035986,2935.530983,-1,114.6268657
1.71E+12,2,2.620521389,381.6034502,2935.530942,-1,114.6268657
1.71E+12,2,2.620522504,381.603288,2935.530875,-1,114.6268657
1.71E+12,2,2.620523719,381.6031113,2935.530774,-1,114.6268657
1.71E+12,2,2.620525037,381.6029196,2935.530631,-1,114.6268657
1.71E+12,2,2.620526463,381.6027123,2935.530438,-1,114.6268657
1.71E+12,2,2.620528002,381.6024884,2935.530187,-1,114.6268657
1.71E+12,2,2.620529662,381.6022469,2935.529871,-1,114.6268657
1.71E+12,2,2.620531454,381.6019863,2935.529483,-1,114.6268657
1.71E+12,2,2.620533384,381.6017056,2935.529018,-1,114.6268657
1.71E+12,2,2.620535459,381.6014037,2935.528472,-1,114.6268657
1.71E+12,2,2.620537687,381.6010798,2935.52784,-1,114.6268657
1.71E+12,2,2.620540074,381.6007325,2935.527118,-1,114.6268657
1.71E+12,2,2.620542631,381.6003606,2935.526302,-1,114.6268657
1.71E+12,2,2.620545368,381.5999625,2935.52539,-1,114.6268657
1.71E+12,2,2.620548292,381.5995371,2935.524376,-1,114.6268657
1.71E+12,2,2.620551412,381.5990834,2935.523258,-1,114.6268657
1.71E+12,2,2.620554735,381.5986001,2935.522032,-1,114.6268657
1.71E+12,2,2.62055827,381.5980858,2935.520694,-1,114.6268657
1.71E+12,2,2.620562029,381.5975391,2935.51924,-1,114.6268657
1.71E+12,2,2.62056602,381.5969586,2935.517665,-1,114.6268657
1.71E+12,2,2.620570249,381.5963435,2935.515966,-1,114.6268657
1.71E+12,2,2.620574724,381.5956926,2935.514138,-1,114.6268657
1.71E+12,2,2.620579452,381.5950049,2935.512177,-1,114.6268657
1.71E+12,2,2.620584446,381.5942785,2935.510077,-1,114.6268657
1.71E+12,2,2.620589714,381.5935122,2935.507836,-1,114.6268657
1.71E+12,2,2.620595266,381.5927047,2935.505447,-1,114.6268657
1.71E+12,2,2.620601108,381.5918549,2935.502908,-1,114.6268657
1.71E+12,2,2.620607248,381.5909618,2935.500214,-1,114.6268657
1.71E+12,2,2.620613694,381.5900243,2935.497362,-1,114.6268657
1.71E+12,2,2.620620454,381.589041,2935.49435,-1,114.6268657
1.71E+12,2,2.620627537,381.5880107,2935.491173,-1,114.6268657
1.71E+12,2,2.620634951,381.5869323,2935.487828,-1,114.6268657
1.71E+12,2,2.620642701,381.5858049,2935.484311,-1,114.6268657
1.71E+12,2,2.620650793,381.5846279,2935.480615,-1,114.6268657
1.71E+12,2,2.620659232,381.5834005,2935.476735,-1,114.6268657
1.71E+12,2,2.620668023,381.5821216,2935.472661,-1,114.6268657
1.71E+12,2,2.620677175,381.5807904,2935.468385,-1,114.6268657
1.71E+12,2,2.620686693,381.5794059,2935.463898,-1,114.6268657
1.71E+12,2,2.620696582,381.5779674,2935.45919,-1,114.6268657
1.71E+12,2,2.620706848,381.5764742,2935.454252,-1,114.6268657
1.71E+12,2,2.620717494,381.5749256,2935.449075,-1,114.6268657
1.71E+12,2,2.620728526,381.5733208,2935.443651,-1,114.6268657
1.71E+12,2,2.62073995,381.5716591,2935.437972,-1,114.6268657
1.71E+12,2,2.620751769,381.5699399,2935.432034,-1,114.6268657
1.71E+12,2,2.620763984,381.5681632,2935.425831,-1,114.6268657
1.71E+12,2,2.620776595,381.5663287,2935.419362,-1,114.6268657
1.71E+12,2,2.620789604,381.5644363,2935.412625,-1,114.6268657
1.71E+12,2,2.62080301,381.5624863,2935.405618,-1,114.6268657
1.71E+12,2,2.620816812,381.5604785,2935.398342,-1,114.6268657
1.71E+12,2,2.620831012,381.558413,2935.390797,-1,114.6268657
1.71E+12,2,2.620845607,381.5562899,2935.382987,-1,114.6268657
1.71E+12,2,2.620860598,381.5541093,2935.374912,-1,114.6268657
1.71E+12,2,2.620875982,381.5518714,2935.366578,-1,114.6268657
1.71E+12,2,2.620891757,381.5495767,2935.357987,-1,114.6268657
1.71E+12,2,2.620907919,381.5472256,2935.349143,-1,114.6268657
1.71E+12,2,2.620924465,381.5448187,2935.340049,-1,114.6268657
1.71E+12,2,2.620941391,381.5423564,2935.33071,-1,114.6268657
1.71E+12,2,2.620958693,381.5398396,2935.321129,-1,114.6268657
1.71E+12,2,2.620976365,381.5372689,2935.31131,-1,114.6268657
1.71E+12,2,2.620994401,381.5346451,2935.30126,-1,114.6268657
1.71E+12,2,2.6210128,381.5319687,2935.290984,-1,114.6268657
1.71E+12,2,2.621031561,381.5292395,2935.280487,-1,114.6268657
1.71E+12,2,2.62105068,381.5264582,2935.269777,-1,114.6268657
1.71E+12,2,2.62107015,381.5236259,2935.258861,-1,114.6268657
1.71E+12,2,2.621089963,381.5207437,2935.247747,-1,114.6268657
1.71E+12,2,2.621110108,381.5178132,2935.236444,-1,114.6268657
1.71E+12,2,2.621130572,381.5148362,2935.224961,-1,114.6268657
1.71E+12,2,2.621151342,381.5118147,2935.213309,-1,114.6268657
1.71E+12,2,2.621172408,381.5087501,2935.201497,-1,114.6268657
1.71E+12,2,2.621193758,381.5056442,2935.189534,-1,114.6268657
1.71E+12,2,2.621215381,381.5024987,2935.177425,-1,114.6268657
1.71E+12,2,2.621237264,381.4993152,2935.165175,-1,114.6268657
1.71E+12,2,2.621259394,381.4960959,2935.15279,-1,114.6268657
1.71E+12,2,2.621281756,381.4928429,2935.140274,-1,114.6268657
1.71E+12,2,2.621304335,381.4895582,2935.127632,-1,114.6268657
1.71E+12,2,2.621327116,381.486244,2935.114871,-1,114.6268657
1.71E+12,2,2.62135009,381.4829019,2935.101997,-1,114.6268657
1.71E+12,2,2.621373244,381.4795335,2935.089018,-1,114.6268657
1.71E+12,2,2.621396564,381.4761411,2935.075944,-1,114.6268657
1.71E+12,2,2.621420032,381.472727,2935.062787,-1,114.6268657
1.71E+12,2,2.621443633,381.4692937,2935.049558,-1,114.6268657
1.71E+12,2,2.62146735,381.4658434,2935.036272,-1,114.6268657
1.71E+12,2,2.621491167,381.4623785,2935.022941,-1,114.6268657
1.71E+12,2,2.621515068,381.4589015,2935.009581,-1,114.6268657
1.71E+12,2,2.621539036,381.4554147,2934.996204,-1,114.6268657
1.71E+12,2,2.621563057,381.4519202,2934.982824,-1,114.6268657
1.71E+12,2,2.621587119,381.4484197,2934.969457,-1,114.6268657
1.71E+12,2,2.621611204,381.4449158,2934.956114,-1,114.6268657
1.71E+12,2,2.621635296,381.441411,2934.942811,-1,114.6268657
1.71E+12,2,2.621659377,381.4379077,2934.929561,-1,114.6268657
1.71E+12,2,2.621683432,381.4344082,2934.916378,-1,114.6268657
1.71E+12,2,2.621707442,381.4309152,2934.903274,-1,114.6268657
1.71E+12,2,2.621731391,381.4274312,2934.890264,-1,114.6268657
1.71E+12,2,2.621755261,381.4239586,2934.877362,-1,114.6268657
1.71E+12,2,2.621779038,381.4204996,2934.864579,-1,114.6268657
1.71E+12,2,2.621802703,381.4170568,2934.851932,-1,114.6268657
1.71E+12,2,2.621826239,381.4136329,2934.839432,-1,114.6268657
1.71E+12,2,2.621849627,381.4102304,2934.827094,-1,114.6268657
1.71E+12,2,2.621872849,381.4068521,2934.814931,-1,114.6268657
1.71E+12,2,2.621895889,381.4035003,2934.802958,-1,114.6268657
1.71E+12,2,2.621918733,381.4001769,2934.791184,-1,114.6268657
1.71E+12,2,2.621941371,381.3968836,2934.77962,-1,114.6268657
1.71E+12,2,2.621963791,381.3936219,2934.768274,-1,114.6268657
1.71E+12,2,2.62198598,381.390394,2934.757153,-1,114.6268657
1.71E+12,2,2.622007922,381.3872019,2934.746261,-1,114.6268657
1.71E+12,2,2.622029604,381.3840476,2934.735601,-1,114.6268657
1.71E+12,2,2.622051013,381.3809331,2934.725176,-1,114.6268657
1.71E+12,2,2.622072139,381.3778597,2934.714988,-1,114.6268657
1.71E+12,2,2.62209297,381.3748293,2934.70504,-1,114.6268657
1.71E+12,2,2.622113495,381.3718434,2934.695335,-1,114.6268657
1.71E+12,2,2.622133705,381.3689034,2934.685877,-1,114.6268657
1.71E+12,2,2.622153589,381.3660106,2934.676669,-1,114.6268657
1.71E+12,2,2.622173137,381.3631669,2934.667717,-1,114.6268657
1.71E+12,2,2.62219233,381.3603748,2934.659024,-1,114.6268657
1.71E+12,2,2.622211152,381.3576366,2934.650595,-1,114.6268657
1.71E+12,2,2.622229588,381.3549547,2934.642435,-1,114.6268657
1.71E+12,2,2.622247623,381.352331,2934.634549,-1,114.6268657
1.71E+12,2,2.622265249,381.349767,2934.62694,-1,114.6268657
1.71E+12,2,2.622282455,381.3472639,2934.619612,-1,114.6268657
1.71E+12,2,2.622299235,381.3448229,2934.612569,-1,114.6268657
1.71E+12,2,2.622315582,381.342445,2934.605813,-1,114.6268657
1.71E+12,2,2.622331487,381.3401312,2934.599346,-1,114.6268657
1.71E+12,2,2.622346944,381.3378827,2934.59317,-1,114.6268657
1.71E+12,2,2.622361944,381.3357007,2934.587286,-1,114.6268657
1.71E+12,2,2.622376482,381.3335859,2934.581694,-1,114.6268657
1.71E+12,2,2.622390553,381.3315391,2934.576394,-1,114.6268657
1.71E+12,2,2.622404153,381.3295607,2934.571385,-1,114.6268657
1.71E+12,2,2.622417284,381.3276506,2934.566668,-1,114.6268657
1.71E+12,2,2.622429945,381.3258091,2934.562241,-1,114.6268657
1.71E+12,2,2.622442132,381.3240363,2934.558104,-1,114.6268657
1.71E+12,2,2.622453844,381.3223327,2934.554253,-1,114.6268657
1.71E+12,2,2.62246508,381.3206983,2934.550688,-1,114.6268657
1.71E+12,2,2.622475838,381.3191334,2934.547406,-1,114.6268657
1.71E+12,2,2.622486122,381.3176376,2934.544403,-1,114.6268657
1.71E+12,2,2.622495936,381.3162102,2934.541676,-1,114.6268657
1.71E+12,2,2.622505278,381.3148514,2934.539215,-1,114.6268657
1.71E+12,2,2.622514146,381.3135616,2934.537012,-1,114.6268657
1.71E+12,2,2.62252254,381.3123407,2934.535054,-1,114.6268657
1.71E+12,2,2.62253046,381.3111889,2934.53333,-1,114.6268657
1.71E+12,2,2.622537901,381.3101067,2934.53183,-1,114.6268657
1.71E+12,2,2.622544861,381.3090944,2934.530541,-1,114.6268657
1.71E+12,2,2.622551339,381.3081524,2934.529455,-1,114.6268657
1.71E+12,2,2.622557335,381.3072804,2934.528562,-1,114.6268657
1.71E+12,2,2.622562852,381.3064782,2934.527853,-1,114.6268657
1.71E+12,2,2.622567893,381.3057452,2934.52732,-1,114.6268657
1.71E+12,2,2.622572458,381.3050814,2934.526957,-1,114.6268657
1.71E+12,2,2.622576553,381.3044861,2934.526757,-1,114.6268657
1.71E+12,2,2.622580182,381.3039586,2934.526715,-1,114.6268657
1.71E+12,2,2.622583348,381.3034983,2934.526824,-1,114.6268657
1.71E+12,2,2.622586058,381.3031045,2934.527078,-1,114.6268657
1.71E+12,2,2.622588315,381.3027766,2934.527472,-1,114.6268657
1.71E+12,2,2.622590123,381.3025139,2934.527998,-1,114.6268657
1.71E+12,2,2.622591486,381.302316,2934.528651,-1,114.6268657
1.71E+12,2,2.62259241,381.3021821,2934.529424,-1,114.6268657
1.71E+12,2,2.622592897,381.3021116,2934.53031,-1,114.6268657
1.71E+12,2,2.622592949,381.3021045,2934.531305,-1,114.6268657
1.71E+12,2,2.622592563,381.302161,2934.532401,-1,114.6268657
1.71E+12,2,2.62259174,381.3022812,2934.533594,-1,114.6268657
1.71E+12,2,2.62259048,381.3024649,2934.534878,-1,114.6268657
1.71E+12,2,2.622588784,381.3027121,2934.536247,-1,114.6268657
1.71E+12,2,2.622586654,381.3030225,2934.537696,-1,114.6268657
1.71E+12,2,2.622584091,381.3033958,2934.53922,-1,114.6268657
1.71E+12,2,2.6225811,381.3038313,2934.540816,-1,114.6268657
1.71E+12,2,2.622577685,381.3043286,2934.54248,-1,114.6268657
1.71E+12,2,2.62257385,381.3048869,2934.544209,-1,114.6268657
1.71E+12,2,2.6225696,381.3055057,2934.545998,-1,114.6268657
1.71E+12,2,2.622564942,381.3061839,2934.547843,-1,114.6268657
1.71E+12,2,2.622559883,381.3069202,2934.549732,-1,114.6268657
1.71E+12,2,2.622554433,381.3077137,2934.551656,-1,114.6268657
1.71E+12,2,2.6225486,381.3085627,2934.553605,-1,114.6268657
1.71E+12,2,2.622542397,381.3094656,2934.555567,-1,114.6268657
1.71E+12,2,2.622535833,381.310421,2934.557533,-1,114.6268657
1.71E+12,2,2.622528916,381.3114277,2934.559491,-1,114.6268657
1.71E+12,2,2.62252166,381.3124838,2934.561434,-1,114.6268657
1.71E+12,2,2.622514077,381.3135875,2934.563353,-1,114.6268657
1.71E+12,2,2.622506177,381.3147374,2934.565243,-1,114.6268657
1.71E+12,2,2.622497967,381.3159322,2934.567101,-1,114.6268657
1.71E+12,2,2.622489458,381.3171706,2934.568923,-1,114.6268657
1.71E+12,2,2.62248066,381.3184512,2934.570706,-1,114.6268657
1.71E+12,2,2.622471582,381.3197724,2934.572446,-1,114.6268657
1.71E+12,2,2.622462231,381.3211333,2934.574143,-1,114.6268657
1.71E+12,2,2.622452616,381.3225326,2934.575796,-1,114.6268657
1.71E+12,2,2.622442747,381.3239688,2934.577404,-1,114.6268657
1.71E+12,2,2.622432636,381.3254404,2934.578966,-1,114.6268657
1.71E+12,2,2.622422293,381.3269456,2934.58048,-1,114.6268657
1.71E+12,2,2.622411727,381.3284833,2934.581945,-1,114.6268657
1.71E+12,2,2.622400947,381.3300521,2934.583359,-1,114.6268657
1.71E+12,2,2.622389958,381.3316514,2934.584722,-1,114.6268657
1.71E+12,2,2.622378762,381.3332808,2934.586032,-1,114.6268657
1.71E+12,2,2.622367367,381.3349391,2934.58729,-1,114.6268657
1.71E+12,2,2.622355789,381.336624,2934.588497,-1,114.6268657
1.71E+12,2,2.622344043,381.3383334,2934.589652,-1,114.6268657
1.71E+12,2,2.622332146,381.3400648,2934.590755,-1,114.6268657
1.71E+12,2,2.622320114,381.3418159,2934.591804,-1,114.6268657
1.71E+12,2,2.622307961,381.3435845,2934.592801,-1,114.6268657
1.71E+12,2,2.6222957,381.3453687,2934.593745,-1,114.6268657
1.71E+12,2,2.622283345,381.3471668,2934.59464,-1,114.6268657
1.71E+12,2,2.622270907,381.3489768,2934.595487,-1,114.6268657
1.71E+12,2,2.622258402,381.3507966,2934.596288,-1,114.6268657
1.71E+12,2,2.622245845,381.3526241,2934.597044,-1,114.6268657
1.71E+12,2,2.622233247,381.3544574,2934.597755,-1,114.6268657
1.71E+12,2,2.622220619,381.3562951,2934.598424,-1,114.6268657
1.71E+12,2,2.622207977,381.3581349,2934.599048,-1,114.6268657
1.71E+12,2,2.622195335,381.3599747,2934.599631,-0.999522284,114.626877
1.71E+12,2,2.62218271,381.361812,2934.60017,-0.99808467,114.6269222
1.71E+12,2,2.622170119,381.3636443,2934.600669,-0.995677443,114.6270242
1.71E+12,2,2.622157582,381.3654687,2934.601128,-0.992286875,114.6272063
1.71E+12,2,2.622145116,381.3672829,2934.601544,-0.987895268,114.6274921
1.71E+12,2,2.622132733,381.369085,2934.60191,-0.982481007,114.6279057
1.71E+12,2,2.622120445,381.3708732,2934.602225,-0.976018651,114.6284719
1.71E+12,2,2.622108268,381.3726454,2934.602485,-0.968479039,114.6292161
1.71E+12,2,2.622096213,381.3743997,2934.602687,-0.959829422,114.6301644
1.71E+12,2,2.622084288,381.3761351,2934.602831,-0.950033625,114.6313441
1.71E+12,2,2.622072501,381.3778504,2934.602915,-0.939052221,114.632783
1.71E+12,2,2.62206086,381.3795446,2934.60294,-0.926842733,114.6345102
1.71E+12,2,2.622049373,381.3812163,2934.602905,-0.91335986,114.6365557
1.71E+12,2,2.622038049,381.3828643,2934.602811,-0.898555717,114.6389507
1.71E+12,2,2.622026893,381.3844878,2934.602659,-0.882380097,114.6417276
1.71E+12,2,2.622015912,381.3860858,2934.60245,-0.864780754,114.64492
1.71E+12,2,2.622005116,381.3876571,2934.602184,-0.845703698,114.6485627
1.71E+12,2,2.621994514,381.3891999,2934.601861,-0.825093509,114.6526921
1.71E+12,2,2.621984118,381.3907128,2934.601484,-0.802893666,114.6573456
1.71E+12,2,2.621973938,381.3921944,2934.601053,-0.779046886,114.6625621
1.71E+12,2,2.621963979,381.3936438,2934.600567,-0.753495477,114.6683818
1.71E+12,2,2.621954248,381.3950599,2934.600028,-0.726181701,114.6748464
1.71E+12,2,2.621944754,381.3964415,2934.599434,-0.697048144,114.6819988
1.71E+12,2,2.621935503,381.3977879,2934.598784,-0.666038092,114.6898833
1.71E+12,2,2.621926504,381.3990975,2934.598079,-0.633095918,114.6985455
1.71E+12,2,2.621917763,381.4003697,2934.597316,-0.598167463,114.7080324
1.71E+12,2,2.62190928,381.4016042,2934.596495,-0.561200427,114.718392
1.71E+12,2,2.621901058,381.4028008,2934.595615,-0.522144756,114.7296737
1.71E+12,2,2.6218931,381.403959,2934.594678,-0.480953027,114.7419279
1.71E+12,2,2.621885407,381.4050784,2934.593685,-0.437580831,114.755206
1.71E+12,2,2.621877981,381.4061591,2934.59264,-0.391987149,114.7695606
1.71E+12,2,2.62187082,381.4072013,2934.591547,-0.344134722,114.7850449
1.71E+12,2,2.621863922,381.4082052,2934.590413,-0.293990414,114.8017131
1.71E+12,2,2.621857282,381.4091715,2934.589245,-0.241525559,114.8196199
1.71E+12,2,2.621850899,381.4101004,2934.58805,-0.186716299,114.8388207
1.71E+12,2,2.621844769,381.4109924,2934.586833,-0.129543914,114.8593713
1.71E+12,2,2.62183889,381.411848,2934.585599,-0.069995123,114.8813278
1.71E+12,2,2.621833254,381.4126681,2934.58435,-0.008062381,114.9047465
1.71E+12,2,2.621827852,381.4134542,2934.583087,0.056255847,114.9296836
1.71E+12,2,2.621822673,381.4142078,2934.58181,0.122954836,114.9561955
1.71E+12,2,2.621817709,381.4149302,2934.580517,0.192023365,114.9843379
1.71E+12,2,2.621812953,381.4156222,2934.579205,0.263443509,115.0141666
1.71E+12,2,2.621808398,381.416285,2934.577871,0.337190449,115.0457363
1.71E+12,2,2.621804038,381.4169194,2934.576511,0.413232313,115.0791013
1.71E+12,2,2.621799865,381.4175266,2934.575123,0.491530038,115.1143149
1.71E+12,2,2.621795872,381.4181075,2934.573705,0.572037259,115.1514291
1.71E+12,2,2.621792048,381.418664,2934.572256,0.654700226,115.1904949
1.71E+12,2,2.62178838,381.4191976,2934.570775,0.739457748,115.2315618
1.71E+12,2,2.621784859,381.4197099,2934.569261,0.82624117,115.2746775
1.71E+12,2,2.621781472,381.4202027,2934.567716,0.914974367,115.3198881
1.71E+12,2,2.621778209,381.4206772,2934.566139,1.005573782,115.3672377
1.71E+12,2,2.62177506,381.4211354,2934.564532,1.097948481,115.4167682
1.71E+12,2,2.621772012,381.4215787,2934.562897,1.192000247,115.4685191
1.71E+12,2,2.621769056,381.4220087,2934.561237,1.287623693,115.5225276
1.71E+12,2,2.621766177,381.4224274,2934.559553,1.384706416,115.5788282
1.71E+12,2,2.621763361,381.4228369,2934.55785,1.483129168,115.6374524
1.71E+12,2,2.621760596,381.423239,2934.55613,1.582766066,115.6984289
1.71E+12,2,2.621757865,381.4236363,2934.554397,1.683484822,115.7617833
1.71E+12,2,2.621755147,381.4240314,2934.552654,1.785147005,115.8275378
1.71E+12,2,2.621752428,381.4244267,2934.550904,1.887608328,115.8957114
1.71E+12,2,2.621749696,381.424824,2934.549149,1.990718959,115.9663193
1.71E+12,2,2.62174694,381.4252247,2934.547391,2.09432386,116.0393732
1.71E+12,2,2.621744148,381.4256306,2934.545634,2.198263149,116.114881
1.71E+12,2,2.62174131,381.4260432,2934.54388,2.302372483,116.1928467
1.71E+12,2,2.621738419,381.4264635,2934.542132,2.40648346,116.2732704
1.71E+12,2,2.621735462,381.4268934,2934.540393,2.51042405,116.356148
1.71E+12,2,2.621732429,381.4273343,2934.538669,2.61401903,116.4414713
1.71E+12,2,2.62172931,381.4277876,2934.536968,2.717090454,116.5292281
1.71E+12,2,2.621726097,381.4282547,2934.5353,2.819458118,116.6194017
1.71E+12,2,2.621722782,381.4287365,2934.533676,2.920940057,116.7119712
1.71E+12,2,2.621719358,381.4292342,2934.532105,3.021353042,116.8069113
1.71E+12,2,2.62171582,381.4297485,2934.530596,3.120513092,116.9041925
1.71E+12,2,2.621712158,381.4302807,2934.529153,3.218235995,117.0037809
1.71E+12,2,2.621708363,381.4308324,2934.527781,3.31433783,117.1056381
1.71E+12,2,2.621704425,381.4314048,2934.526481,3.4086355,117.2097216
1.71E+12,2,2.621700339,381.4319987,2934.525253,3.500947265,117.3159844
1.71E+12,2,2.62169611,381.4326135,2934.524095,3.591093274,117.4243756
1.71E+12,2,2.621691741,381.4332486,2934.523002,3.678896099,117.5348396
1.71E+12,2,2.621687234,381.4339037,2934.521971,3.764181262,117.6473172
1.71E+12,2,2.62168259,381.4345787,2934.520997,3.846777759,117.7617448
1.71E+12,2,2.621677809,381.4352736,2934.520077,3.926518577,117.8780549
1.71E+12,2,2.621672891,381.4359886,2934.519209,4.003241201,117.9961765
1.71E+12,2,2.62166783,381.4367242,2934.518394,4.076788112,118.1160344
1.71E+12,2,2.621662627,381.4374805,2934.517634,4.147007267,118.2375501
1.71E+12,2,2.621657287,381.4382568,2934.516929,4.213752569,118.3606416
1.71E+12,2,2.621651816,381.439052,2934.516283,4.276884322,118.4852235
1.71E+12,2,2.62164622,381.4398655,2934.515695,4.336269662,118.6112075
1.71E+12,2,2.621640502,381.4406967,2934.515168,4.391782973,118.7385021
1.71E+12,2,2.62163467,381.4415445,2934.514702,4.443306279,118.8670132
1.71E+12,2,2.621628732,381.4424077,2934.514301,4.490729616,118.9966438
1.71E+12,2,2.621622697,381.4432849,2934.513964,4.533951377,119.1272949
1.71E+12,2,2.621616576,381.4441748,2934.513692,4.572878631,119.258865
1.71E+12,2,2.62161038,381.4450754,2934.513486,4.607427422,119.3912507
1.71E+12,2,2.621604124,381.4459849,2934.513347,4.637523029,119.524347
1.71E+12,2,2.621597818,381.4469015,2934.513275,4.663100206,119.6580472
1.71E+12,2,2.621591475,381.4478236,2934.513267,4.684103389,119.7922432
1.71E+12,2,2.621585105,381.4487495,2934.513323,4.700486875,119.926826
1.71E+12,2,2.621578717,381.4496781,2934.513442,4.712214963,120.0616857
1.71E+12,2,2.621572319,381.450608,2934.513627,4.719262072,120.1967117
1.71E+12,2,2.621565921,381.4515381,2934.513878,4.721612819,120.3317933
1.71E+12,2,2.621559535,381.4524664,2934.514199,4.719262072,120.4668194
1.71E+12,2,2.621553175,381.4533909,2934.514594,4.712214963,120.601679
1.71E+12,2,2.621546856,381.4543094,2934.515069,4.700486875,120.7362618
1.71E+12,2,2.62154059,381.4552202,2934.515631,4.684103389,120.8704579
1.71E+12,2,2.621534389,381.4561213,2934.516286,4.663100206,121.004158
1.71E+12,2,2.621528269,381.457011,2934.517038,4.637523029,121.1372543
1.71E+12,2,2.621522241,381.457887,2934.517893,4.607427422,121.26964
1.71E+12,2,2.621516321,381.4587475,2934.518854,4.572878631,121.4012101
1.71E+12,2,2.621510521,381.4595905,2934.519923,4.533951377,121.5318612
1.71E+12,2,2.621504854,381.4604141,2934.521101,4.490729616,121.6614918
1.71E+12,2,2.621499337,381.4612158,2934.522389,4.443306279,121.7900029
1.71E+12,2,2.621493989,381.4619929,2934.523786,4.391782973,121.9172975
1.71E+12,2,2.621488831,381.4627425,2934.525288,4.336269662,122.0432815
1.71E+12,2,2.621483878,381.4634622,2934.526891,4.276884322,122.1678635
1.71E+12,2,2.621479146,381.4641498,2934.528588,4.213752569,122.2909549
1.71E+12,2,2.621474648,381.4648032,2934.530372,4.147007267,122.4124706
1.71E+12,2,2.621470397,381.4654208,2934.532233,4.076788112,122.5323285
1.71E+12,2,2.621466405,381.4660006,2934.534163,4.003241201,122.6504501
1.71E+12,2,2.621462682,381.4665414,2934.536153,3.926518577,122.7667603
1.71E+12,2,2.621459237,381.4670416,2934.538193,3.846777759,122.8811878
1.71E+12,2,2.62145608,381.4675001,2934.540275,3.764181262,122.9936654
1.71E+12,2,2.621453217,381.4679157,2934.542392,3.678896099,123.1041295
1.71E+12,2,2.621450656,381.4682874,2934.544535,3.591093274,123.2125206
1.71E+12,2,2.621448399,381.4686148,2934.5467,3.500947265,123.3187835
1.71E+12,2,2.62144645,381.4688975,2934.548881,3.4086355,123.4228669
1.71E+12,2,2.621444811,381.469135,2934.551074,3.31433783,123.5247241
1.71E+12,2,2.621443485,381.4693271,2934.553275,3.218235995,123.6243125
1.71E+12,2,2.621442468,381.4694741,2934.555481,3.120513092,123.7215937
1.71E+12,2,2.621441759,381.4695764,2934.557687,3.021353042,123.8165338
1.71E+12,2,2.621441355,381.4696342,2934.559888,2.920940057,123.9091033
1.71E+12,2,2.621441252,381.4696483,2934.562082,2.819458118,123.9992769
1.71E+12,2,2.621441444,381.4696196,2934.564266,2.717090454,124.0870337
1.71E+12,2,2.621441928,381.4695484,2934.566442,2.61401903,124.1723571
1.71E+12,2,2.621442702,381.4694349,2934.568616,2.51042405,124.2552347
1.71E+12,2,2.62144376,381.4692801,2934.570791,2.40648346,124.3356583
1.71E+12,2,2.621445097,381.4690847,2934.57297,2.302372483,124.413624
1.71E+12,2,2.621446711,381.4688491,2934.575158,2.198263149,124.4891318
1.71E+12,2,2.621448596,381.4685739,2934.577357,2.09432386,124.5621857
1.71E+12,2,2.621450747,381.4682602,2934.579569,1.990718959,124.6327936
1.71E+12,2,2.621453154,381.4679093,2934.581794,1.887608328,124.7009672
1.71E+12,2,2.621455808,381.4675223,2934.584034,1.785147005,124.7667217
1.71E+12,2,2.621458697,381.4671012,2934.586289,1.683484822,124.8300761
1.71E+12,2,2.621461805,381.4666482,2934.588555,1.582766066,124.8910526
1.71E+12,2,2.621465116,381.4661657,2934.590831,1.483129168,124.9496768
1.71E+12,2,2.621468612,381.4656563,2934.593114,1.384706416,125.0059774
1.71E+12,2,2.621472277,381.4651224,2934.595403,1.287623693,125.0599859
1.71E+12,2,2.621476096,381.4645661,2934.597698,1.192000247,125.1117368
1.71E+12,2,2.621480053,381.4639896,2934.599998,1.097948481,125.1612673
1.71E+12,2,2.621484133,381.4633953,2934.602303,1.005573782,125.2084899
1.71E+12,2,2.621488322,381.4627853,2934.604613,0.914974367,125.2531916
1.71E+12,2,2.621492603,381.4621617,2934.606923,0.82624117,125.2951587
1.71E+12,2,2.621496961,381.461527,2934.609224,0.739457748,125.334176
1.71E+12,2,2.621501378,381.4608838,2934.611508,0.654700226,125.3700253
1.71E+12,2,2.621505839,381.4602342,2934.613763,0.572037259,125.4024842
1.71E+12,2,2.621510329,381.4595804,2934.615982,0.491530038,125.4313252
1.71E+12,2,2.621514832,381.4589247,2934.618157,0.413232313,125.4563142
1.71E+12,2,2.621519334,381.4582692,2934.620282,0.337190449,125.4772095
1.71E+12,2,2.62152382,381.4576159,2934.62235,0.263443509,125.4937607
1.71E+12,2,2.621528276,381.4569672,2934.624358,0.192023365,125.5057077
1.71E+12,2,2.621532682,381.4563256,2934.626303,0.122954836,125.5127796
1.71E+12,2,2.621537019,381.4556942,2934.628179,0.056255847,125.514694
1.71E+12,2,2.621541267,381.4550756,2934.629984,-0.008062381,125.5111561
1.71E+12,2,2.621545408,381.4544727,2934.631717,-0.069995123,125.5018577
1.71E+12,2,2.62154942,381.4538887,2934.63338,-0.129543914,125.4864768
1.71E+12,2,2.621553282,381.4533264,2934.634978,-0.186716299,125.4646768
1.71E+12,2,2.621556979,381.4527883,2934.636516,-0.241525559,125.4361061
1.71E+12,2,2.621560489,381.4522772,2934.638002,-0.293990414,125.4003977
1.71E+12,2,2.621563795,381.4517959,2934.639443,-0.344134722,125.3571686
1.71E+12,2,2.62156688,381.4513467,2934.640846,-0.391987149,125.3060201
1.71E+12,2,2.621569726,381.4509325,2934.642219,-0.437580831,125.2465371
1.71E+12,2,2.621572313,381.4505559,2934.643566,-0.480953027,125.1782885
1.71E+12,2,2.621574621,381.45022,2934.644893,-0.522144756,125.1008272
1.71E+12,2,2.62157663,381.4499274,2934.6462,-0.561200427,125.0136902
1.71E+12,2,2.621578328,381.4496803,2934.647489,-0.598167463,124.916399
1.71E+12,2,2.621579701,381.4494804,2934.648762,-0.633095918,124.80846
1.71E+12,2,2.621580734,381.44933,2934.65002,-0.666038092,124.6893651
1.71E+12,2,2.621581415,381.4492309,2934.651267,-0.697048144,124.5585923
1.71E+12,2,2.621581735,381.4491843,2934.652503,-0.726181701,124.4156064
1.71E+12,2,2.621581682,381.449192,2934.653729,-0.753495477,124.2598602
1.71E+12,2,2.621581245,381.4492555,2934.654945,-0.779046886,124.0907951
1.71E+12,2,2.621580415,381.4493764,2934.656153,-0.802893666,123.9078422
1.71E+12,2,2.621579183,381.4495558,2934.657355,-0.825093509,123.7104238
1.71E+12,2,2.621577544,381.4497942,2934.658553,-0.845703698,123.4979545
1.71E+12,2,2.621575495,381.4500926,2934.65975,-0.864780754,123.2698425
1.71E+12,2,2.621573028,381.4504516,2934.660945,-0.882380097,123.0254912
1.71E+12,2,2.621570136,381.4508725,2934.662138,-0.898555717,122.7643008
1.71E+12,2,2.621566813,381.4513562,2934.663323,-0.91335986,122.4856697
1.71E+12,2,2.621563053,381.4519035,2934.664493,-0.926842733,122.1889965
1.71E+12,2,2.62155885,381.4525153,2934.665643,-0.939052221,121.8736817
1.71E+12,2,2.621554196,381.4531927,2934.666764,-0.950033625,121.5391293
1.71E+12,2,2.621549088,381.4539361,2934.667852,-0.959829422,121.1847489
1.71E+12,2,2.621543525,381.4547459,2934.668898,-0.968479039,120.809958
1.71E+12,2,2.621537509,381.4556216,2934.669898,-0.976018651,120.4141832
1.71E+12,2,2.621531044,381.4565626,2934.670845,-0.982481007,119.9968627
1.71E+12,2,2.621524133,381.4575686,2934.671737,-0.987895268,119.5574486
1.71E+12,2,2.621516774,381.4586397,2934.672573,-0.992286875,119.0954084
1.71E+12,2,2.621508969,381.4597758,2934.673357,-0.995677443,118.6102274
1.71E+12,2,2.621500721,381.4609763,2934.674091,-0.99808467,118.1014107
1.71E+12,2,2.621492035,381.4622406,2934.674784,-0.999522284,117.5684852
1.71E+12,2,2.621482917,381.4635679,2934.675441,-1,117.011002
1.71E+12,2,2.621473372,381.4649572,2934.676069,-1,116.4285265
1.71E+12,2,2.621463407,381.4664076,2934.676674,-1,115.8206413
1.71E+12,2,2.621453026,381.4679187,2934.677261,-1,115.1869584
1.71E+12,2,2.62144223,381.4694902,2934.677838,-1,114.527122
1.71E+12,2,2.621431022,381.4711216,2934.678412,-1,113.8408092
1.71E+12,2,2.621419411,381.4728116,2934.678992,-1,113.1277326
1.71E+12,2,2.62140741,381.4745584,2934.679583,-1,112.3876416
1.71E+12,2,2.62139503,381.4763605,2934.680191,-1,111.6203237
1.71E+12,2,2.621382277,381.4782168,2934.68082,-1,110.8256065
1.71E+12,2,2.621369165,381.4801253,2934.681472,-1,110.0033586
1.71E+12,2,2.621355711,381.4820836,2934.682149,-1,109.1534911
1.71E+12,2,2.621341932,381.4840893,2934.682851,-1,108.2759589
1.71E+12,2,2.621327842,381.4861402,2934.683581,-1,107.3707615
1.71E+12,2,2.621313457,381.4882341,2934.684336,-1,106.4379442
1.71E+12,2,2.621298792,381.4903687,2934.685118,-1,105.4775988
1.71E+12,2,2.621283862,381.4925419,2934.685926,-1,104.4898645
1.71E+12,2,2.621268683,381.4947513,2934.686762,-1,103.4749282
1.71E+12,2,2.621253271,381.4969946,2934.687627,-1,102.4330254
1.71E+12,2,2.621237642,381.4992696,2934.68852,-1,101.3644401
1.71E+12,2,2.621221809,381.5015742,2934.68944,-1,100.2695051
1.71E+12,2,2.621205788,381.5039062,2934.690385,-1,99.14860249
1.71E+12,2,2.62118959,381.506264,2934.691349,-1,98.00216293
1.71E+12,2,2.621173235,381.5086446,2934.692325,-1,96.83066585
1.71E+12,2,2.621156744,381.5110449,2934.693303,-1,95.63463898
1.71E+12,2,2.621140135,381.5134626,2934.694272,-1,94.41465779
1.71E+12,2,2.621123422,381.5158952,2934.695224,-1,93.17134496
1.71E+12,2,2.621106626,381.51834,2934.696151,-1,91.90536949
1.71E+12,2,2.621089761,381.5207949,2934.697047,-1,90.61744583
1.71E+12,2,2.621072844,381.5232573,2934.697904,-1,89.30833281
1.71E+12,2,2.621055895,381.5257244,2934.698718,-1,87.97883246
1.71E+12,2,2.621038931,381.5281937,2934.699484,-1,86.62978865
1.71E+12,2,2.621021972,381.5306622,2934.700199,-1,85.26208566
1.71E+12,2,2.621005035,381.5331275,2934.700858,-1,83.87664659
1.71E+12,2,2.620988136,381.5355873,2934.701457,-1,82.47443165
1.71E+12,2,2.62097129,381.5380394,2934.701996,-1,81.05643638
1.71E+12,2,2.620954508,381.5404822,2934.702476,-1,79.62368967
1.71E+12,2,2.620937803,381.5429138,2934.702898,-1,78.17725179
1.71E+12,2,2.620921187,381.5453323,2934.703266,-1,76.71821221
1.71E+12,2,2.620904677,381.5477354,2934.703582,-1,75.24768741
1.71E+12,2,2.620888288,381.5501211,2934.703851,-1,73.76681855
1.71E+12,2,2.62087203,381.5524875,2934.704078,-1,72.27676912
1.71E+12,2,2.620855916,381.5548331,2934.704267,-1,70.77872244
1.71E+12,2,2.620839955,381.5571563,2934.70442,-1,69.2738792
1.71E+12,2,2.620824158,381.5594558,2934.704543,-1,67.76345483
1.71E+12,2,2.62080853,381.5617306,2934.704635,-1,66.24867691
1.71E+12,2,2.620793076,381.56398,2934.704699,-1,64.73078252
1.71E+12,2,2.620777803,381.5662032,2934.704733,-1,63.21101551
1.71E+12,2,2.620762716,381.5683992,2934.704738,-1,61.69062384
1.71E+12,2,2.620747817,381.570568,2934.704713,-1,60.17085683
1.71E+12,2,2.620733109,381.572709,2934.704657,-1,58.65296243
1.71E+12,2,2.620718594,381.5748218,2934.704568,-1,57.13818451
1.71E+12,2,2.620704276,381.576906,2934.704447,-1,55.62776014
1.71E+12,2,2.620690155,381.5789616,2934.70429,-1,54.1229169
1.71E+12,2,2.620676232,381.5809884,2934.704096,-1,52.62487023
1.71E+12,2,2.620662508,381.5829861,2934.70386,-1,51.1348208
1.71E+12,2,2.620648981,381.5849552,2934.703577,-1,49.65395194
1.71E+12,2,2.620635647,381.5868964,2934.70324,-1,48.18342713
1.71E+12,2,2.620622501,381.5888101,2934.702842,-1,46.72438755
1.71E+12,2,2.62060954,381.5906971,2934.702373,-1,45.27794967
1.71E+12,2,2.620596758,381.5925579,2934.701825,-1,43.84520297
1.71E+12,2,2.620584148,381.5943937,2934.70119,-1,42.42720769
1.71E+12,2,2.620571704,381.5962055,2934.700462,-1,41.02499276
1.71E+12,2,2.62055942,381.597994,2934.699634,-1,39.63955368
1.71E+12,2,2.620547287,381.5997605,2934.6987,-1,38.27185069
1.71E+12,2,2.620535294,381.6015067,2934.697656,-1,36.92280688
1.71E+12,2,2.620523435,381.6032336,2934.6965,-1,35.59330653
1.71E+12,2,2.620511699,381.6049424,2934.69523,-1,34.28419352
1.71E+12,2,2.620500074,381.6066352,2934.693845,-1,32.99626986
1.71E+12,2,2.620488546,381.608314,2934.692344,-1,31.73029438
1.71E+12,2,2.620477099,381.6099811,2934.690726,-1,30.48698155
1.71E+12,2,2.620465715,381.611639,2934.688992,-1,29.26700037
1.71E+12,2,2.620454375,381.6132907,2934.687146,-1,28.07097349
1.71E+12,2,2.62044306,381.6149388,2934.685194,-1,26.89947641
1.71E+12,2,2.620431751,381.616586,2934.683143,-1,25.75303685
1.71E+12,2,2.620420428,381.6182355,2934.681001,-1,24.63213422
1.71E+12,2,2.62040907,381.6198901,2934.678777,-1,23.53719928
1.71E+12,2,2.620397651,381.6215536,2934.676478,-1,22.46861393
1.71E+12,2,2.620386144,381.6232301,2934.674115,-1,21.4267111
1.71E+12,2,2.620374523,381.6249234,2934.6717,-1,20.41177484
1.71E+12,2,2.620362762,381.6266371,2934.669241,-1,19.42404052
1.71E+12,2,2.620350838,381.6283746,2934.666748,-1,18.46369514
1.71E+12,2,2.620338732,381.6301387,2934.664227,-1,17.53087783
1.71E+12,2,2.620326422,381.6319327,2934.661684,-1,16.62568042
1.71E+12,2,2.620313883,381.6337601,2934.659123,-1,15.7481482
1.71E+12,2,2.620301088,381.635625,2934.656551,-1,14.89828073
1.71E+12,2,2.620288009,381.6375312,2934.653973,-1,14.07603281
1.71E+12,2,2.620274624,381.6394822,2934.651394,-1,13.2813156
1.71E+12,2,2.62026091,381.6414812,2934.648822,-1,12.51399775
1.71E+12,2,2.620246843,381.6435317,2934.646261,-1,11.77390672
1.71E+12,2,2.620232397,381.6456377,2934.643715,-1,11.06083016
1.71E+12,2,2.620217542,381.6478032,2934.641188,-1,10.37451738
1.71E+12,2,2.620202253,381.6500321,2934.638681,-1,9.714680896
1.71E+12,2,2.620186505,381.6523281,2934.636192,-1,9.080998072
1.71E+12,2,2.620170273,381.6546945,2934.633721,-1,8.473112828
1.71E+12,2,2.620153538,381.6571343,2934.631267,-1,7.890637394
1.71E+12,2,2.620136285,381.6596499,2934.628829,-1,7.333154129
1.71E+12,2,2.620118496,381.6622435,2934.626402,-1,6.800217391
1.71E+12,2,2.620100153,381.6649181,2934.623985,-1,6.291355438
1.71E+12,2,2.620081232,381.6676768,2934.621575,-1,5.806072364
1.71E+12,2,2.620061716,381.6705225,2934.619174,-1,5.343850058
1.71E+12,2,2.620041584,381.673458,2934.616781,-1,4.904150184
1.71E+12,2,2.620020818,381.6764859,2934.614398,-1,4.486416159
1.71E+12,2,2.619999402,381.6796087,2934.612026,-1,4.090075142
1.71E+12,2,2.619977319,381.6828287,2934.609666,-1,3.714540008
1.71E+12,2,2.619954552,381.6861487,2934.607321,-1,3.359211313
1.71E+12,2,2.619931084,381.6895708,2934.604992,-1,3.023479231
1.71E+12,2,2.619906902,381.693097,2934.60268,-1,2.706725467
1.71E+12,2,2.619881993,381.6967293,2934.600387,-1,2.408325133
1.71E+12,2,2.619856347,381.7004691,2934.598114,-1,2.127648575
1.71E+12,2,2.619829959,381.7043171,2934.595863,-1,1.86406316
1.71E+12,2,2.61980283,381.7082731,2934.593635,-1,1.616934997
1.71E+12,2,2.619774957,381.7123377,2934.591434,-1,1.385630603
1.71E+12,2,2.619746333,381.7165119,2934.589261,-1,1.169518503
1.71E+12,2,2.619716953,381.7207962,2934.587122,-1,0.967970748
1.71E+12,2,2.619686813,381.7251915,2934.585023,-1,0.780364363
1.71E+12,2,2.61965591,381.7296981,2934.582972,-1,0.606082717
1.71E+12,2,2.619624241,381.7343164,2934.580972,-1,0.444516791
1.71E+12,2,2.619591806,381.7390464,2934.579032,-1,0.295066374
1.71E+12,2,2.619558607,381.7438877,2934.577157,-1,0.157141156
1.71E+12,2,2.619524651,381.7488396,2934.575353,-1,0.030161727
1.71E+12,2,2.619489942,381.7539012,2934.573626,-1,-0.086439525
1.71E+12,2,2.619454489,381.7590715,2934.571981,-1,-0.193217607
1.71E+12,2,2.619418299,381.7643491,2934.570419,-1,-0.290714227
1.71E+12,2,2.619381382,381.7697329,2934.568944,-1,-0.379457194
1.71E+12,2,2.619343748,381.7752213,2934.567554,-1,-0.459959929
1.71E+12,2,2.619305408,381.7808126,2934.566249,-1,-0.532721067
1.71E+12,2,2.619266377,381.7865048,2934.565027,-1,-0.598224175
1.71E+12,2,2.619226672,381.7922951,2934.563889,-1,-0.656937563
1.71E+12,2,2.619186311,381.7981814,2934.562834,-1,-0.709314198
1.71E+12,2,2.619145311,381.8041608,2934.56186,-1,-0.755791718
1.71E+12,2,2.619103687,381.8102312,2934.560964,-1,-0.796792537
1.71E+12,2,2.619061458,381.81639,2934.560139,-1,-0.832724052
1.71E+12,2,2.619018642,381.8226344,2934.559379,-1,-0.863978932
1.71E+12,2,2.618975261,381.8289613,2934.558672,-1,-0.890935499
1.71E+12,2,2.618931338,381.8353672,2934.55801,-1,-0.913958194
1.71E+12,2,2.618886895,381.841849,2934.557383,-1,-0.933398115
1.71E+12,2,2.618841955,381.8484035,2934.556781,-1,-0.949593635
1.71E+12,2,2.618796543,381.8550267,2934.556196,-1,-0.962871091
1.71E+12,2,2.618750683,381.8617154,2934.55562,-1,-0.973545531
1.71E+12,2,2.618704399,381.868466,2934.555046,-1,-0.981921527
1.71E+12,2,2.618657713,381.8752754,2934.554466,-1,-0.988294038
1.71E+12,2,2.618610648,381.88214,2934.553876,-1,-0.992949322
1.71E+12,2,2.618563233,381.8890558,2934.553272,-1,-0.996165886
1.71E+12,2,2.618515501,381.8960181,2934.552652,-1,-0.998215478
1.71E+12,2,2.618467481,381.9030223,2934.552012,-1,-0.999364101
1.71E+12,2,2.6184192,381.9100647,2934.55135,-1,-0.999873058
1.71E+12,2,2.618370681,381.9171419,2934.550662,-1,-1
1.71E+12,2,2.61832195,381.9242503,2934.549946,-1,-1
1.71E+12,2,2.618273031,381.931386,2934.549196,-1,-1
1.71E+12,2,2.618223949,381.9385457,2934.548411,-1,-1
1.71E+12,2,2.618174728,381.9457257,2934.547593,-1,-1
1.71E+12,2,2.618125393,381.9529226,2934.546748,-1,-1
1.71E+12,2,2.61807597,381.9601323,2934.545882,-1,-1
1.71E+12,2,2.618026487,381.967351,2934.545001,-1,-1
1.71E+12,2,2.617976971,381.9745747,2934.544113,-1,-1
1.71E+12,2,2.617927445,381.9817998,2934.543223,-1,-1
1.71E+12,2,2.61787793,381.9890236,2934.542334,-1,-1
1.71E+12,2,2.617828445,381.996243,2934.541451,-1,-1
1.71E+12,2,2.617779013,382.003455,2934.540578,-1,-1
1.71E+12,2,2.617729653,382.0106565,2934.539718,-1,-1
1.71E+12,2,2.617680388,382.0178444,2934.538875,-1,-1
1.71E+12,2,2.617631238,382.0250156,2934.538052,-1,-1
1.71E+12,2,2.617582223,382.0321674,2934.537251,-1,-1
1.71E+12,2,2.617533362,382.0392969,2934.536475,-1,-1
1.71E+12,2,2.61748467,382.0464018,2934.535722,-1,-1
1.71E+12,2,2.617436161,382.0534802,2934.534992,-1,-1
1.71E+12,2,2.617387848,382.0605303,2934.534279,-1,-1
1.71E+12,2,2.617339739,382.0675507,2934.533579,-1,-1
1.71E+12,2,2.617291853,382.0745387,2934.532885,-1,-1
1.71E+12,2,2.617244214,382.081491,2934.532192,-1,-1
1.71E+12,2,2.617196835,382.0884055,2934.531492,-1,-1
1.71E+12,2,2.617149725,382.0952809,2934.530783,-1,-1
1.71E+12,2,2.617102892,382.1021161,2934.530059,-1,-1
1.71E+12,2,2.617056343,382.1089101,2934.529319,-1,-1
1.71E+12,2,2.617010081,382.1156623,2934.52856,-1,-1
1.71E+12,2,2.616964115,382.1223716,2934.527782,-1,-1
1.71E+12,2,2.616918447,382.1290376,2934.526985,-1,-1
1.71E+12,2,2.616873079,382.13566,2934.52617,-1,-1
1.71E+12,2,2.616828012,382.1422387,2934.52534,-1,-1
1.71E+12,2,2.616783249,382.1487733,2934.524493,-1,-1
1.71E+12,2,2.616738789,382.1552638,2934.523633,-1,-1
1.71E+12,2,2.616694632,382.1617105,2934.522761,-1,-1
1.71E+12,2,2.616650772,382.1681139,2934.521879,-1,-1
1.71E+12,2,2.616607207,382.1744745,2934.520989,-1,-1
1.71E+12,2,2.616563934,382.1807928,2934.520093,-1,-1
1.71E+12,2,2.616520949,382.1870691,2934.519196,-1,-1
1.71E+12,2,2.61647825,382.1933041,2934.518306,-1,-1
1.71E+12,2,2.616435829,382.1994986,2934.517428,-1,-1
1.71E+12,2,2.61639368,382.2056537,2934.516572,-1,-1
1.71E+12,2,2.616351799,382.21177,2934.515746,-1,-1
1.71E+12,2,2.616310176,382.2178488,2934.514955,-1,-1
1.71E+12,2,2.616268802,382.2238915,2934.514209,-1,-1
1.71E+12,2,2.616227666,382.2298997,2934.513513,-1,-1
1.71E+12,2,2.616186757,382.2358752,2934.512876,-1,-1
1.71E+12,2,2.616146064,382.2418192,2934.512302,-1,-1
1.71E+12,2,2.616105578,382.2477333,2934.511795,-1,-1
1.71E+12,2,2.616065288,382.253619,2934.511358,-1,-1
1.71E+12,2,2.616025182,382.2594782,2934.510991,-1,-1
1.71E+12,2,2.615985247,382.2653127,2934.510696,-1,-1
1.71E+12,2,2.615945468,382.2711246,2934.510474,-1,-1
1.71E+12,2,2.615905827,382.2769167,2934.510327,-1,-1
1.71E+12,2,2.615866306,382.2826915,2934.510255,-1,-1
1.71E+12,2,2.615826887,382.2884517,2934.51026,-1,-1
1.71E+12,2,2.615787551,382.2942,2934.510342,-1,-1
1.71E+12,2,2.615748279,382.2999394,2934.510503,-1,-1
1.71E+12,2,2.61570905,382.3056727,2934.510744,-1,-1
1.71E+12,2,2.615669844,382.3114032,2934.511065,-1,-1
1.71E+12,2,2.615630641,382.3171333,2934.511464,-1,-1
1.71E+12,2,2.615591428,382.3228652,2934.511941,-1,-1
1.71E+12,2,2.615552185,382.3286019,2934.512492,-1,-1
1.71E+12,2,2.615512889,382.3343467,2934.513111,-1,-1
1.71E+12,2,2.615473519,382.3401025,2934.513789,-1,-1
1.71E+12,2,2.615434055,382.3458724,2934.514519,-1,-1
1.71E+12,2,2.615394479,382.3516591,2934.515293,-1,-1
1.71E+12,2,2.615354773,382.3574651,2934.516102,-1,-1
1.71E+12,2,2.615314915,382.3632936,2934.516938,-1,-1
1.71E+12,2,2.61527488,382.3691483,2934.517791,-1,-1
1.71E+12,2,2.615234643,382.3750329,2934.518653,-1,-1
1.71E+12,2,2.61519418,382.380951,2934.519517,-1,-1
1.71E+12,2,2.615153465,382.3869061,2934.520377,-1,-1
1.71E+12,2,2.615112477,382.3929017,2934.521231,-1,-1
1.71E+12,2,2.615071192,382.3989409,2934.522082,-1,-1
1.71E+12,2,2.615029587,382.4050274,2934.522933,-1,-1
1.71E+12,2,2.61498763,382.4111656,2934.52379,-1,-1
1.71E+12,2,2.614945295,382.4173595,2934.524662,-1,-1
1.71E+12,2,2.614902556,382.4236129,2934.525554,-1,-1
1.71E+12,2,2.614859387,382.4299295,2934.526471,-1,-1
1.71E+12,2,2.614815765,382.4363127,2934.527416,-1,-1
1.71E+12,2,2.614771664,382.4427664,2934.528392,-1,-1
1.71E+12,2,2.614727058,382.4492943,2934.5294,-1,-1
1.71E+12,2,2.614681923,382.4559001,2934.53044,-1,-1
1.71E+12,2,2.614636234,382.4625872,2934.53151,-1,-1
1.71E+12,2,2.614589968,382.4693592,2934.53261,-1,-1
1.71E+12,2,2.614543101,382.4762195,2934.533737,-1,-1
1.71E+12,2,2.61449561,382.4831715,2934.534888,-1,-1
1.71E+12,2,2.614447476,382.490218,2934.536059,-1,-1
1.71E+12,2,2.614398682,382.4973616,2934.537249,-1,-1
1.71E+12,2,2.614349208,382.504605,2934.538455,-1,-1
1.71E+12,2,2.614299033,382.5119515,2934.539679,-1,-1
1.71E+12,2,2.614248136,382.519404,2934.540918,-1,-1
1.71E+12,2,2.614196497,382.5269657,2934.542172,-1,-1
1.71E+12,2,2.614144102,382.5346383,2934.543442,-1,-1
1.71E+12,2,2.61409094,382.5424239,2934.544724,-1,-1
1.71E+12,2,2.614036992,382.5503247,2934.546015,-1,-1
1.71E+12,2,2.613982243,382.5583434,2934.547314,-1,-1
1.71E+12,2,2.613926678,382.5664821,2934.548617,-1,-1
1.71E+12,2,2.613870281,382.5747429,2934.549918,-1,-1
1.71E+12,2,2.613813036,382.5831284,2934.551209,-1,-1
1.71E+12,2,2.61375493,382.5916405,2934.552481,-1,-1
1.71E+12,2,2.613695947,382.6002815,2934.553724,-1,-1
1.71E+12,2,2.61363607,382.6090539,2934.55493,-1,-1
1.71E+12,2,2.613575284,382.61796,2934.556089,-1,-1
1.71E+12,2,2.613513575,382.6270019,2934.557194,-1,-1
1.71E+12,2,2.613450928,382.6361815,2934.55824,-1,-1
1.71E+12,2,2.613387336,382.6455002,2934.559226,-1,-1
1.71E+12,2,2.613322789,382.6549593,2934.560152,-1,-1
1.71E+12,2,2.613257279,382.66456,2934.56102,-1,-1
1.71E+12,2,2.6131908,382.6743032,2934.561833,-1,-1
1.71E+12,2,2.613123348,382.6841896,2934.562597,-1,-1
1.71E+12,2,2.613054913,382.6942205,2934.563317,-1,-1
1.71E+12,2,2.612985489,382.704397,2934.563999,-1,-1
1.71E+12,2,2.612915068,382.7147201,2934.564649,-1,-1
1.71E+12,2,2.612843647,382.7251904,2934.565272,-1,-1
1.71E+12,2,2.612771226,382.7358078,2934.56587,-1,-1
1.71E+12,2,2.612697803,382.7465725,2934.566448,-1,-1
1.71E+12,2,2.612623375,382.7574853,2934.567007,-1,-1
1.71E+12,2,2.612547937,382.7685467,2934.567547,-1,-1
1.71E+12,2,2.612471489,382.7797568,2934.568069,-1,-1
1.71E+12,2,2.61239403,382.7911157,2934.568573,-1,-1
1.71E+12,2,2.612315562,382.8026231,2934.569059,-1,-1
1.71E+12,2,2.61223609,382.8142785,2934.569526,-1,-1
1.71E+12,2,2.612155617,382.8260811,2934.569974,-1,-1
1.71E+12,2,2.612074153,382.8380299,2934.570403,-1,-1
1.71E+12,2,2.611991706,382.8501234,2934.570812,-1,-1
1.71E+12,2,2.611908287,382.8623602,2934.571202,-1,-1
1.71E+12,2,2.611823903,382.8747391,2934.571575,-1,-1
1.71E+12,2,2.611738561,382.8872593,2934.571932,-1,-1
1.71E+12,2,2.611652273,382.8999189,2934.572274,-1,-1
1.71E+12,2,2.611565051,382.9127162,2934.572601,-1,-1
1.71E+12,2,2.611476907,382.9256495,2934.572915,-1,-1
1.71E+12,2,2.611387856,382.9387167,2934.573215,-1,-1
1.71E+12,2,2.61129791,382.9519157,2934.5735,-1,-1
1.71E+12,2,2.611207085,382.9652446,2934.573764,-1,-1
1.71E+12,2,2.611115399,382.9787006,2934.574004,-1,-1
1.71E+12,2,2.611022868,382.9922812,2934.574211,-1,-1
1.71E+12,2,2.610929511,383.0059839,2934.574378,-1,-1
1.71E+12,2,2.610835347,383.0198059,2934.574498,-1,-1
1.71E+12,2,2.610740395,383.0337442,2934.574564,-1,-1
1.71E+12,2,2.610644674,383.0477962,2934.574568,-1,-1
1.71E+12,2,2.610548204,383.0619589,2934.574506,-1,-1
1.71E+12,2,2.610451009,383.076229,2934.574378,-1,-1
1.71E+12,2,2.610353109,383.0906032,2934.574185,-1,-1
1.71E+12,2,2.610254527,383.1050785,2934.573934,-1,-1
1.71E+12,2,2.610155285,383.1196515,2934.57363,-1,-1
1.71E+12,2,2.610055406,383.1343189,2934.573278,-1,-1
1.71E+12,2,2.609954909,383.1490779,2934.572888,-1,-1
1.71E+12,2,2.609853813,383.1639256,2934.57247,-1,-1
1.71E+12,2,2.609752146,383.1788582,2934.572032,-1,-1
1.71E+12,2,2.609649937,383.1938711,2934.571583,-1,-1
1.71E+12,2,2.609547216,383.2089602,2934.571129,-1,-1
1.71E+12,2,2.609444013,383.224121,2934.570675,-1,-1
1.71E+12,2,2.609340357,383.2393493,2934.570225,-1,-1
1.71E+12,2,2.609236278,383.2546405,2934.569782,-1,-1
1.71E+12,2,2.609131808,383.26999,2934.56935,-1,-1
1.71E+12,2,2.609026977,383.2853936,2934.568931,-1,-1
1.71E+12,2,2.608921815,383.3008466,2934.568528,-1,-1
1.71E+12,2,2.608816351,383.3163449,2934.568143,-1,-1
1.71E+12,2,2.608710616,383.331884,2934.567781,-1,-1
1.71E+12,2,2.608604641,383.3474593,2934.567444,-1,-1
1.71E+12,2,2.608498455,383.3630666,2934.567133,-1,-1
1.71E+12,2,2.608392084,383.3787019,2934.56685,-1,-1
1.71E+12,2,2.60828556,383.3943606,2934.566598,-1,-1
1.71E+12,2,2.608178914,383.4100383,2934.566377,-1,-1
1.71E+12,2,2.608072176,383.4257302,2934.566185,-1,-1
1.71E+12,2,2.607965383,383.4414313,2934.566019,-1,-1
1.71E+12,2,2.607858569,383.4571363,2934.565875,-1,-1
1.71E+12,2,2.607751768,383.4728404,2934.565746,-1,-1
1.71E+12,2,2.607645012,383.4885388,2934.565627,-1,-1
1.71E+12,2,2.607538334,383.5042268,2934.56551,-1,-1
1.71E+12,2,2.60743176,383.5199001,2934.56539,-1,-1
1.71E+12,2,2.607325321,383.5355548,2934.565263,-1,-1
1.71E+12,2,2.607219043,383.5511866,2934.565128,-1,-1
1.71E+12,2,2.607112955,383.5667914,2934.56498,-1,-1
1.71E+12,2,2.607007084,383.5823651,2934.56482,-1,-1
1.71E+12,2,2.606901457,383.597904,2934.564645,-1,-1
1.71E+12,2,2.606796101,383.6134039,2934.564457,-1,-1
1.71E+12,2,2.606691042,383.628861,2934.564257,-1,-1
1.71E+12,2,2.606586307,383.6442714,2934.564045,-1,-1
1.71E+12,2,2.606481923,383.6596309,2934.563819,-1,-1
1.71E+12,2,2.606377917,383.6749359,2934.56358,-1,-1
1.71E+12,2,2.606274315,383.6901824,2934.563333,-1,-1
1.71E+12,2,2.606171142,383.7053665,2934.563079,-1,-1
1.71E+12,2,2.606068424,383.7204846,2934.562824,-1,-1
1.71E+12,2,2.605966189,383.7355326,2934.562574,-1,-1
1.71E+12,2,2.60586446,383.7505069,2934.562336,-1,-1
1.71E+12,2,2.60576326,383.7654044,2934.562116,-1,-1
1.71E+12,2,2.60566261,383.7802216,2934.56192,-1,-1
1.71E+12,2,2.605562534,383.7949553,2934.561753,-1,-1
1.71E+12,2,2.605463055,383.8096019,2934.561622,-1,-1
1.71E+12,2,2.605364195,383.8241582,2934.561531,-1,-1
1.71E+12,2,2.605265977,383.8386209,2934.561483,-1,-1
1.71E+12,2,2.605168424,383.8529865,2934.561479,-1,-1
1.71E+12,2,2.605071555,383.8672522,2934.561521,-1,-1
1.71E+12,2,2.604975382,383.8814162,2934.561607,-1,-1
1.71E+12,2,2.60487992,383.8954763,2934.561738,-1,-1
1.71E+12,2,2.604785184,383.9094304,2934.561915,-1,-1
1.71E+12,2,2.604691189,383.9232761,2934.562138,-1,-1
1.71E+12,2,2.604597952,383.9370109,2934.562405,-1,-1
1.71E+12,2,2.604505487,383.9506328,2934.562716,-1,-1
1.71E+12,2,2.604413808,383.9641397,2934.563071,-1,-1
1.71E+12,2,2.604322926,383.9775299,2934.563472,-1,-1
1.71E+12,2,2.604232853,383.9908017,2934.563918,-1,-1
1.71E+12,2,2.604143603,384.003953,2934.564412,-1,-1
1.71E+12,2,2.604055187,384.0169822,2934.564954,-1,-1
1.71E+12,2,2.603967615,384.0298877,2934.565544,-1,-1
1.71E+12,2,2.603880902,384.0426674,2934.566181,-1,-1
1.71E+12,2,2.603795061,384.0553193,2934.566863,-1,-1
1.71E+12,2,2.603710102,384.0678417,2934.567586,-1,-1
1.71E+12,2,2.603626035,384.0802335,2934.568344,-1,-1
1.71E+12,2,2.603542866,384.0924937,2934.569127,-1,-1
1.71E+12,2,2.603460605,384.1046207,2934.569926,-1,-1
1.71E+12,2,2.603379259,384.1166135,2934.570732,-1,-1
1.71E+12,2,2.603298836,384.1284708,2934.571538,-1,-1
1.71E+12,2,2.603219345,384.1401914,2934.572337,-1,-1
1.71E+12,2,2.603140794,384.1517741,2934.573126,-1,-1
1.71E+12,2,2.603063188,384.163218,2934.573905,-1,-1
1.71E+12,2,2.602986533,384.1745223,2934.574676,-1,-1
1.71E+12,2,2.602910836,384.185686,2934.575445,-1,-1
1.71E+12,2,2.602836095,384.1967093,2934.576218,-1,-1
1.71E+12,2,2.602762304,384.207593,2934.577004,-1,-1
1.71E+12,2,2.602689463,384.2183373,2934.57781,-1,-1
1.71E+12,2,2.602617578,384.2289411,2934.578645,-1,-1
1.71E+12,2,2.602546653,384.2394038,2934.579515,-1,-1
1.71E+12,2,2.602476695,384.2497243,2934.580425,-1,-1
1.71E+12,2,2.602407707,384.2599023,2934.58138,-1,-1
1.71E+12,2,2.602339691,384.2699374,2934.582382,-1,-1
1.71E+12,2,2.602272651,384.279829,2934.583433,-1,-1
1.71E+12,2,2.602206589,384.2895768,2934.584531,-1,-1
1.71E+12,2,2.602141507,384.2991805,2934.585679,-1,-1
1.71E+12,2,2.602077404,384.3086401,2934.586877,-1,-1
1.71E+12,2,2.602014283,384.3179554,2934.588127,-1,-1
1.71E+12,2,2.601952146,384.3271258,2934.589427,-1,-1
1.71E+12,2,2.601890995,384.3361511,2934.590777,-1,-1
1.71E+12,2,2.601830833,384.345031,2934.592176,-1,-1
1.71E+12,2,2.601771659,384.3537654,2934.593625,-1,-1
1.71E+12,2,2.601713476,384.3623539,2934.595124,-1,-1
1.71E+12,2,2.601656282,384.3707969,2934.596674,-1,-1
1.71E+12,2,2.601600082,384.3790934,2934.598273,-1,-1
1.71E+12,2,2.601544883,384.3872426,2934.599923,-1,-1
1.71E+12,2,2.601490686,384.3952442,2934.601622,-1,-1
1.71E+12,2,2.601437489,384.4030984,2934.603371,-1,-1
1.71E+12,2,2.601385293,384.4108054,2934.60517,-1,-1
1.71E+12,2,2.601334097,384.4183648,2934.607021,-1,-1
1.71E+12,2,2.6012839,384.4257771,2934.608923,-1,-1
1.71E+12,2,2.601234701,384.4330423,2934.610879,-1,-1
1.71E+12,2,2.601186499,384.4401606,2934.612889,-1,-1
1.71E+12,2,2.601139292,384.4471322,2934.614954,-1,-1
1.71E+12,2,2.60109308,384.4539571,2934.617072,-1,-1
1.71E+12,2,2.601047863,384.4606354,2934.619241,-1,-1
1.71E+12,2,2.60100364,384.4671671,2934.621456,-1,-1
1.71E+12,2,2.60096041,384.4735521,2934.623709,-1,-1
1.71E+12,2,2.600918175,384.4797906,2934.625992,-1,-1
1.71E+12,2,2.600876936,384.4858823,2934.628298,-1,-1
1.71E+12,2,2.600836693,384.4918268,2934.630616,-1,-1
1.71E+12,2,2.600797448,384.4976241,2934.632938,-1,-1
1.71E+12,2,2.600759202,384.5032742,2934.635256,-1,-1
1.71E+12,2,2.600721952,384.5087771,2934.637565,-1,-1
1.71E+12,2,2.600685698,384.5141333,2934.639862,-1,-1
1.71E+12,2,2.600650435,384.5193429,2934.642144,-1,-1
1.71E+12,2,2.600616163,384.5244064,2934.644412,-1,-1
1.71E+12,2,2.600582881,384.5293238,2934.646669,-1,-1
1.71E+12,2,2.600550587,384.5340953,2934.648918,-1,-1
1.71E+12,2,2.600519279,384.5387213,2934.651165,-1,-1
1.71E+12,2,2.600488953,384.5432021,2934.653415,-1,-1
1.71E+12,2,2.600459606,384.5475386,2934.655673,-1,-1
1.71E+12,2,2.600431235,384.5517308,2934.657942,-1,-1
1.71E+12,2,2.600403841,384.5557788,2934.660227,-1,-1
1.71E+12,2,2.600377424,384.5596825,2934.662529,-1,-1
1.71E+12,2,2.60035198,384.5634423,2934.664852,-1,-1
1.71E+12,2,2.600327507,384.5670589,2934.667195,-1,-1
1.71E+12,2,2.600304002,384.5705324,2934.66956,-1,-1
1.71E+12,2,2.600281458,384.573864,2934.671944,-1,-1
1.71E+12,2,2.600259867,384.5770547,2934.674346,-1,-1
1.71E+12,2,2.600239222,384.5801057,2934.676764,-1,-1
1.71E+12,2,2.600219516,384.583018,2934.679195,-1,-1
1.71E+12,2,2.600200742,384.5857926,2934.681637,-1,-1
1.71E+12,2,2.600182893,384.5884304,2934.684086,-1,-1
1.71E+12,2,2.600165961,384.5909327,2934.686541,-1,-1
1.71E+12,2,2.60014994,384.5933004,2934.688999,-1,-1
1.71E+12,2,2.600134821,384.5955348,2934.691457,-1,-1
1.71E+12,2,2.600120596,384.5976371,2934.693913,-1,-1
1.71E+12,2,2.600107254,384.5996089,2934.696367,-1,-1
1.71E+12,2,2.600094782,384.601452,2934.698817,-1,-1
1.71E+12,2,2.600083172,384.6031679,2934.701262,-1,-1
1.71E+12,2,2.600072411,384.6047581,2934.703696,-1,-1
1.71E+12,2,2.600062487,384.6062247,2934.706116,-1,-1
1.71E+12,2,2.600053385,384.6075698,2934.708516,-1,-1
1.71E+12,2,2.600045091,384.6087955,2934.710887,-1,-1
1.71E+12,2,2.600037592,384.6099036,2934.713218,-1,-1
1.71E+12,2,2.600030876,384.610896,2934.715497,-1,-1
1.71E+12,2,2.600024929,384.6117747,2934.717714,-1,-1
1.71E+12,2,2.600019729,384.6125428,2934.71986,-1,-1
1.71E+12,2,2.600015256,384.6132037,2934.721926,-1,-1
1.71E+12,2,2.600011492,384.6137596,2934.723906,-1,-1
1.71E+12,2,2.600008421,384.614213,2934.725795,-1,-1
1.71E+12,2,2.600006027,384.6145663,2934.727587,-1,-1
1.71E+12,2,2.600004293,384.6148221,2934.729281,-1,-1
1.71E+12,2,2.600003203,384.6149827,2934.730877,-1,-1
1.71E+12,2,2.600002739,384.6150507,2934.732379,-1,-1
1.71E+12,2,2.600002882,384.6150289,2934.733789,-1,-1
1.71E+12,2,2.600003618,384.6149195,2934.735113,-1,-1
1.71E+12,2,2.600004932,384.6147246,2934.736355,-1,-1
1.71E+12,2,2.600006805,384.614447,2934.737518,-1,-1
1.71E+12,2,2.600009217,384.6140898,2934.738603,-1,-1
1.71E+12,2,2.600012144,384.6136563,2934.739611,-1,-1
1.71E+12,2,2.600015566,384.6131497,2934.740545,-1,-1
1.71E+12,2,2.600019462,384.6125731,2934.741405,-1,-1
1.71E+12,2,2.600023806,384.6119301,2934.742191,-1,-1
1.71E+12,2,2.600028576,384.6112242,2934.7429,-1,-1
1.71E+12,2,2.600033751,384.6104584,2934.743535,-1,-1
1.71E+12,2,2.600039315,384.609635,2934.744091,-1,-1
1.71E+12,2,2.600045253,384.6087564,2934.744568,-1,-1
1.71E+12,2,2.600051541,384.607826,2934.744961,-1,-1
1.71E+12,2,2.600058155,384.6068474,2934.745269,-1,-1
1.71E+12,2,2.600065073,384.6058238,2934.745491,-1,-1
1.71E+12,2,2.600072273,384.6047585,2934.745623,-1,-1
1.71E+12,2,2.600079733,384.6036547,2934.745667,-1,-1
1.71E+12,2,2.600087432,384.6025157,2934.745622,-1,-1
1.71E+12,2,2.600095348,384.6013446,2934.745487,-1,-1
1.71E+12,2,2.600103462,384.6001441,2934.745264,-1,-1
1.71E+12,2,2.600111754,384.5989173,2934.744952,-1,-1
1.71E+12,2,2.600120205,384.5976672,2934.744554,-1,-1
1.71E+12,2,2.600128793,384.5963967,2934.744071,-1,-1
1.71E+12,2,2.600137497,384.5951089,2934.743503,-1,-1
1.71E+12,2,2.6001463,384.5938066,2934.742849,-1,-1
1.71E+12,2,2.600155185,384.5924922,2934.742111,-1,-1
1.71E+12,2,2.600164134,384.5911683,2934.741287,-1,-1
1.71E+12,2,2.600173129,384.5898377,2934.740373,-1,-1
1.71E+12,2,2.600182151,384.588503,2934.739369,-1,-1
1.71E+12,2,2.600191184,384.5871667,2934.738267,-1,-1
1.71E+12,2,2.600200212,384.5858311,2934.737064,-1,-1
1.71E+12,2,2.60020922,384.5844985,2934.735756,-1,-1
1.71E+12,2,2.600218192,384.5831713,2934.734342,-1,-1
1.71E+12,2,2.600227112,384.5818518,2934.732823,-1,-1
1.71E+12,2,2.600235966,384.580542,2934.7312,-1,-1
1.71E+12,2,2.600244739,384.5792442,2934.729476,-1,-1
1.71E+12,2,2.600253417,384.5779603,2934.727652,-1,-1
1.71E+12,2,2.600261988,384.5766925,2934.725734,-1,-1
1.71E+12,2,2.60027044,384.5754422,2934.723727,-1,-1
1.71E+12,2,2.600278764,384.5742108,2934.721635,-1,-1
1.71E+12,2,2.600286952,384.5729996,2934.719462,-1,-1
1.71E+12,2,2.600294997,384.5718095,2934.717211,-1,-1
1.71E+12,2,2.60030289,384.5706418,2934.714885,-1,-1
1.71E+12,2,2.600310623,384.5694979,2934.712486,-1,-1
1.71E+12,2,2.600318186,384.568379,2934.710016,-1,-1
1.71E+12,2,2.600325574,384.5672862,2934.707477,-1,-1
1.71E+12,2,2.600332778,384.5662204,2934.70487,-1,-1
1.71E+12,2,2.600339793,384.5651826,2934.702197,-1,-1
1.71E+12,2,2.600346611,384.5641742,2934.699459,-1,-1
1.71E+12,2,2.600353224,384.5631959,2934.696657,-1,-1
1.71E+12,2,2.600359627,384.5622487,2934.693795,-1,-1
1.71E+12,2,2.600365812,384.5613337,2934.690875,-1,-1
1.71E+12,2,2.600371772,384.5604521,2934.687901,-1,-1
1.71E+12,2,2.600377501,384.5596046,2934.684875,-1,-1
1.71E+12,2,2.600382997,384.5587915,2934.681798,-1,-1
1.71E+12,2,2.600388257,384.5580134,2934.678674,-1,-1
1.71E+12,2,2.600393279,384.5572706,2934.675504,-1,-1
1.71E+12,2,2.600398062,384.556563,2934.67229,-1,-1
1.71E+12,2,2.600402607,384.5558906,2934.669034,-1,-1
1.71E+12,2,2.600406912,384.5552537,2934.665738,-1,-1
1.71E+12,2,2.600410973,384.554653,2934.662406,-1,-1
1.71E+12,2,2.600414787,384.5540888,2934.659039,-1,-1
1.71E+12,2,2.600418354,384.5535611,2934.655642,-1,-1
1.71E+12,2,2.600421675,384.5530697,2934.65222,-1,-1
1.71E+12,2,2.600424747,384.5526153,2934.648784,-1,-1
1.71E+12,2,2.600427564,384.5521985,2934.645345,-1,-1
1.71E+12,2,2.600430127,384.5518195,2934.641916,-1,-1
1.71E+12,2,2.600432433,384.5514783,2934.63851,-1,-1
1.71E+12,2,2.600434484,384.5511748,2934.635138,-1,-1
1.71E+12,2,2.600436283,384.5509088,2934.631814,-1,-1
1.71E+12,2,2.600437833,384.5506794,2934.628546,-1,-1
1.71E+12,2,2.600439138,384.5504864,2934.625343,-1,-1
1.71E+12,2,2.6004402,384.5503291,2934.62221,-1,-1
1.71E+12,2,2.600441024,384.5502072,2934.619152,-1,-1
1.71E+12,2,2.600441614,384.55012,2934.616168,-1,-1
1.71E+12,2,2.600441973,384.5500667,2934.613257,-1,-1
1.71E+12,2,2.600442107,384.5500469,2934.610417,-1,-1
1.71E+12,2,2.600442019,384.5500598,2934.607645,-1,-1
1.71E+12,2,2.600441717,384.5501045,2934.604941,-1,-1
1.71E+12,2,2.600441205,384.5501802,2934.602303,-1,-1
1.71E+12,2,2.600440485,384.5502867,2934.599732,-1,-1
1.71E+12,2,2.600439563,384.550423,2934.597227,-1,-1
1.71E+12,2,2.600438442,384.5505888,2934.594791,-1,-1
1.71E+12,2,2.600437125,384.5507835,2934.592425,-1,-1
1.71E+12,2,2.600435619,384.5510062,2934.590134,-1,-1
1.71E+12,2,2.600433931,384.5512559,2934.587921,-1,-1
1.71E+12,2,2.600432065,384.5515318,2934.585788,-1,-1
1.71E+12,2,2.600430024,384.5518337,2934.583741,-1,-1
1.71E+12,2,2.600427809,384.5521612,2934.581782,-1,-1
1.71E+12,2,2.600425421,384.5525144,2934.579915,-1,-1
1.71E+12,2,2.600422859,384.5528933,2934.578145,-1,-1
1.71E+12,2,2.600420124,384.5532978,2934.576476,-1,-1
1.71E+12,2,2.600417218,384.5537276,2934.574911,-1,-1
1.71E+12,2,2.600414142,384.5541826,2934.573452,-1,-1
1.71E+12,2,2.600410899,384.5546622,2934.572102,-1,-1
1.71E+12,2,2.600407493,384.5551659,2934.570863,-1,-1
1.71E+12,2,2.600403928,384.5556933,2934.569736,-1,-1
1.71E+12,2,2.600400204,384.556244,2934.568722,-1,-1
1.71E+12,2,2.600396329,384.5568171,2934.567824,-1,-1
1.71E+12,2,2.600392306,384.5574122,2934.567043,-1,-1
1.71E+12,2,2.600388138,384.5580287,2934.566379,-1,-1
1.71E+12,2,2.600383828,384.5586661,2934.565832,-1,-1
1.71E+12,2,2.60037938,384.5593241,2934.565402,-1,-1
1.71E+12,2,2.600374794,384.5600024,2934.565089,-1,-1
1.71E+12,2,2.600370073,384.5607006,2934.564895,-1,-1
1.71E+12,2,2.600365218,384.5614187,2934.564818,-1,-1
1.71E+12,2,2.600360228,384.5621568,2934.564862,-1,-1
1.71E+12,2,2.600355104,384.5629147,2934.565026,-1,-1
1.71E+12,2,2.600349849,384.563692,2934.56531,-1,-1
1.71E+12,2,2.600344464,384.5644884,2934.565715,-1,-1
1.71E+12,2,2.600338952,384.5653038,2934.566237,-1,-1
1.71E+12,2,2.600333315,384.5661376,2934.566876,-1,-1
1.71E+12,2,2.600327554,384.5669897,2934.567628,-1,-1
1.71E+12,2,2.60032167,384.5678601,2934.56849,-1,-1
1.71E+12,2,2.600315664,384.5687485,2934.56946,-1,-1
1.71E+12,2,2.600309539,384.5696545,2934.570533,-1,-1
1.71E+12,2,2.600303296,384.570578,2934.571707,-1,-1
1.71E+12,2,2.600296937,384.5715186,2934.572978,-1,-1
1.71E+12,2,2.600290462,384.5724763,2934.574343,-1,-1
1.71E+12,2,2.600283874,384.5734508,2934.575797,-1,-1
1.71E+12,2,2.600277177,384.5744415,2934.577337,-1,-1
1.71E+12,2,2.600270373,384.575448,2934.578957,-1,-1
1.71E+12,2,2.600263463,384.5764701,2934.580654,-1,-1
1.71E+12,2,2.600256448,384.5775079,2934.582424,-1,-1
1.71E+12,2,2.600249329,384.5785609,2934.584261,-1,-1
1.71E+12,2,2.600242107,384.5796293,2934.586163,-1,-1
1.71E+12,2,2.600234781,384.580713,2934.588123,-1,-1
1.71E+12,2,2.600227356,384.5818115,2934.590139,-1,-1
1.71E+12,2,2.600219833,384.5829244,2934.592205,-1,-1
1.71E+12,2,2.600212216,384.5840511,2934.594316,-1,-1
1.71E+12,2,2.600204508,384.5851914,2934.596468,-1,-1
1.71E+12,2,2.60019671,384.586345,2934.598656,-1,-1
1.71E+12,2,2.600188822,384.5875119,2934.600876,-1,-1
1.71E+12,2,2.600180846,384.5886918,2934.603124,-1,-1
1.71E+12,2,2.600172786,384.5898841,2934.605397,-1,-1
1.71E+12,2,2.600164644,384.5910886,2934.607689,-1,-1
1.71E+12,2,2.600156424,384.5923047,2934.609998,-1,-1
1.71E+12,2,2.600148127,384.5935322,2934.61232,-1,-1
1.71E+12,2,2.600139752,384.5947711,2934.614654,-1,-1
1.71E+12,2,2.600131303,384.5960211,2934.616996,-1,-1
1.71E+12,2,2.600122783,384.5972815,2934.619343,-1,-1
1.71E+12,2,2.600114196,384.5985519,2934.621685,-1,-1
1.71E+12,2,2.600105544,384.599832,2934.624014,-1,-1
1.71E+12,2,2.600096831,384.6011211,2934.626318,-1,-1
1.71E+12,2,2.600088058,384.6024189,2934.628586,-1,-1
1.71E+12,2,2.600079231,384.6037249,2934.630807,-1,-1
1.71E+12,2,2.600070353,384.6050383,2934.632971,-1,-1
1.71E+12,2,2.600061428,384.6063587,2934.635072,-1,-1
1.71E+12,2,2.600052458,384.6076858,2934.637108,-1,-1
1.71E+12,2,2.600043448,384.6090188,2934.639078,-1,-1
1.71E+12,2,2.600034406,384.6103566,2934.640985,-1,-1
1.71E+12,2,2.600025338,384.6116982,2934.642832,-1,-1
1.71E+12,2,2.600016249,384.6130428,2934.644624,-1,-1
1.71E+12,2,2.600007145,384.6143898,2934.646367,-1,-1
1.71E+12,2,2.599998031,384.6157382,2934.648064,-1,-1
1.71E+12,2,2.599988913,384.6170873,2934.649721,-1,-1
1.71E+12,2,2.599979801,384.6184355,2934.651339,-1,-1
1.71E+12,2,2.599970703,384.6197815,2934.652917,-1,-1
1.71E+12,2,2.599961625,384.6211246,2934.654454,-1,-1
1.71E+12,2,2.599952574,384.6224636,2934.65595,-1,-1
1.71E+12,2,2.599943556,384.6237979,2934.657403,-1,-1
1.71E+12,2,2.599934574,384.6251268,2934.658811,-1,-1
1.71E+12,2,2.599925636,384.6264492,2934.660173,-1,-1
1.71E+12,2,2.599916746,384.6277646,2934.66149,-1,-1
1.71E+12,2,2.599907909,384.629072,2934.662763,-1,-1
1.71E+12,2,2.59989913,384.630371,2934.663991,-1,-1
1.71E+12,2,2.599890408,384.6316613,2934.665176,-1,-1
1.71E+12,2,2.599881745,384.6329431,2934.66632,-1,-1
1.71E+12,2,2.599873143,384.6342158,2934.667425,-1,-1
1.71E+12,2,2.599864609,384.6354784,2934.668494,-1,-1
1.71E+12,2,2.599856149,384.6367301,2934.669528,-1,-1
1.71E+12,2,2.59984777,384.6379699,2934.670528,-1,-1
1.71E+12,2,2.599839479,384.6391966,2934.671495,-1,-1
1.71E+12,2,2.599831282,384.6404093,2934.672428,-1,-1
1.71E+12,2,2.599823186,384.6416072,2934.673325,-1,-1
1.71E+12,2,2.599815194,384.6427896,2934.674181,-1,-1
1.71E+12,2,2.599807311,384.6439559,2934.674991,-1,-1
1.71E+12,2,2.599799544,384.6451051,2934.675748,-1,-1
1.71E+12,2,2.599791896,384.6462367,2934.676445,-1,-1
1.71E+12,2,2.599784369,384.6473503,2934.677076,-1,-1
1.71E+12,2,2.599776967,384.6484454,2934.677635,-1,-1
1.71E+12,2,2.599769694,384.6495215,2934.678117,-1,-1
1.71E+12,2,2.599762555,384.6505777,2934.678516,-1,-1
1.71E+12,2,2.599755552,384.6516139,2934.67883,-1,-1
1.71E+12,2,2.599748688,384.6526293,2934.679059,-1,-1
1.71E+12,2,2.599741967,384.6536238,2934.679204,-1,-1
1.71E+12,2,2.59973539,384.6545969,2934.679268,-1,-1
1.71E+12,2,2.599728958,384.6555484,2934.679255,-1,-1
1.71E+12,2,2.599722673,384.6564784,2934.679176,-1,-1
1.71E+12,2,2.599716532,384.6573868,2934.679037,-1,-1
1.71E+12,2,2.599710537,384.6582739,2934.678846,-1,-1
1.71E+12,2,2.599704688,384.6591392,2934.678611,-1,-1
1.71E+12,2,2.599698984,384.659983,2934.678337,-1,-1
1.71E+12,2,2.599693426,384.6608055,2934.678031,-1,-1
1.71E+12,2,2.59968801,384.6616067,2934.677696,-1,-1
1.71E+12,2,2.599682734,384.6623872,2934.67734,-1,-1
1.71E+12,2,2.599677598,384.6631471,2934.676964,-1,-1
1.71E+12,2,2.5996726,384.6638865,2934.676573,-1,-1
1.71E+12,2,2.599667741,384.6646054,2934.676168,-1,-1
1.71E+12,2,2.599663017,384.6653042,2934.67575,-1,-1
1.71E+12,2,2.599658425,384.6659836,2934.67532,-1,-1
1.71E+12,2,2.599653963,384.6666438,2934.674878,-1,-1
1.71E+12,2,2.599649629,384.667285,2934.674427,-1,-1
1.71E+12,2,2.59964542,384.6679076,2934.673971,-1,-1
1.71E+12,2,2.599641333,384.6685123,2934.673507,-1,-1
1.71E+12,2,2.59963736,384.6691,2934.673037,-1,-1
1.71E+12,2,2.5996335,384.6696711,2934.672562,-1,-1
1.71E+12,2,2.599629747,384.6702263,2934.672084,-1,-1
1.71E+12,2,2.599626094,384.6707668,2934.671604,-1,-1
1.71E+12,2,2.599622534,384.6712935,2934.671121,-1,-1
1.71E+12,2,2.599619056,384.671808,2934.670633,-1,-1
1.71E+12,2,2.59961565,384.6723119,2934.670136,-1,-1
1.71E+12,2,2.599612306,384.6728066,2934.669625,-1,-1
1.71E+12,2,2.599609016,384.6732934,2934.669095,-1,-1
1.71E+12,2,2.599605772,384.6737733,2934.668541,-1,-1
1.71E+12,2,2.599602566,384.6742476,2934.667958,-1,-1
1.71E+12,2,2.599599394,384.6747169,2934.667342,-1,-1
1.71E+12,2,2.599596251,384.6751819,2934.666692,-1,-1
1.71E+12,2,2.599593129,384.6756439,2934.666002,-1,-1
1.71E+12,2,2.599590017,384.6761043,2934.665272,-1,-1
1.71E+12,2,2.599586909,384.6765642,2934.664499,-1,-1
1.71E+12,2,2.599583795,384.6770249,2934.663683,-1,-1
1.71E+12,2,2.599580666,384.6774878,2934.662821,-1,-1
1.71E+12,2,2.599577514,384.6779542,2934.661913,-1,-1
1.71E+12,2,2.599574329,384.6784255,2934.660958,-1,-1
1.71E+12,2,2.599571103,384.6789028,2934.659956,-1,-1
1.71E+12,2,2.599567827,384.6793875,2934.658908,-1,-1
1.71E+12,2,2.599564492,384.6798811,2934.657819,-1,-1
1.71E+12,2,2.599561086,384.680385,2934.656692,-1,-1
1.71E+12,2,2.599557603,384.6809004,2934.655533,-1,-1
1.71E+12,2,2.599554035,384.6814283,2934.654349,-1,-1
1.71E+12,2,2.599550373,384.6819703,2934.653145,-1,-1
1.71E+12,2,2.599546609,384.6825273,2934.651931,-1,-1
1.71E+12,2,2.599542735,384.6831006,2934.650713,-1,-1
1.71E+12,2,2.599538741,384.6836916,2934.649499,-1,-1
1.71E+12,2,2.59953462,384.6843014,2934.648297,-1,-1
1.71E+12,2,2.599530365,384.6849311,2934.647113,-1,-1
1.71E+12,2,2.599525964,384.6855824,2934.645951,-1,-1
1.71E+12,2,2.599521409,384.6862565,2934.644817,-1,-1
1.71E+12,2,2.599516694,384.6869542,2934.643713,-1,-1
1.71E+12,2,2.599511813,384.6876767,2934.642644,-1,-1
1.71E+12,2,2.599506756,384.688425,2934.641612,-1,-1
1.71E+12,2,2.599501517,384.6892004,2934.640618,-1,-1
1.71E+12,2,2.599496087,384.690004,2934.639667,-1,-1
1.71E+12,2,2.59949046,384.6908368,2934.638758,-1,-1
1.71E+12,2,2.599484628,384.6916998,2934.637896,-1,-1
1.71E+12,2,2.599478586,384.6925942,2934.637083,-1,-1
1.71E+12,2,2.599472327,384.6935204,2934.636322,-1,-1
1.71E+12,2,2.599465849,384.6944792,2934.635618,-1,-1
1.71E+12,2,2.599459149,384.6954708,2934.634974,-1,-1
1.71E+12,2,2.599452224,384.6964957,2934.634395,-1,-1
1.71E+12,2,2.599445073,384.6975542,2934.633885,-1,-1
1.71E+12,2,2.599437692,384.6986465,2934.633448,-1,-1
1.71E+12,2,2.59943008,384.6997731,2934.633089,-1,-1
1.71E+12,2,2.599422234,384.7009345,2934.632811,-1,-1
1.71E+12,2,2.599414153,384.7021304,2934.632615,-1,-1
1.71E+12,2,2.599405838,384.7033611,2934.632499,-1,-1
1.71E+12,2,2.599397287,384.7046267,2934.632462,-1,-1
1.71E+12,2,2.599388499,384.7059275,2934.6325,-1,-1
1.71E+12,2,2.599379472,384.7072635,2934.632609,-1,-1
1.71E+12,2,2.599370207,384.7086349,2934.632783,-1,-1
1.71E+12,2,2.599360703,384.7100416,2934.633019,-1,-1
1.71E+12,2,2.599350961,384.7114836,2934.633314,-1,-1
1.71E+12,2,2.599340983,384.7129604,2934.633663,-1,-1
1.71E+12,2,2.599330774,384.7144715,2934.634065,-1,-1
1.71E+12,2,2.599320336,384.7160164,2934.634516,-1,-1
1.71E+12,2,2.599309676,384.7175943,2934.635014,-1,-1
1.71E+12,2,2.599298796,384.7192046,2934.635558,-1,-1
1.71E+12,2,2.599287703,384.7208466,2934.636148,-1,-1
1.71E+12,2,2.599276401,384.7225196,2934.636784,-1,-1
1.71E+12,2,2.599264891,384.7242232,2934.637467,-1,-1
1.71E+12,2,2.599253183,384.7259562,2934.638198,-1,-1
1.71E+12,2,2.599241283,384.7277176,2934.638981,-1,-1
1.71E+12,2,2.5992292,384.7295061,2934.639819,-1,-1
1.71E+12,2,2.599216945,384.7313202,2934.64072,-1,-1
1.71E+12,2,2.599204524,384.7331587,2934.64169,-1,-1
1.71E+12,2,2.599191946,384.7350205,2934.642735,-1,-1
1.71E+12,2,2.59917922,384.7369044,2934.643861,-1,-1
1.71E+12,2,2.59916635,384.7388095,2934.645072,-1,-1
1.71E+12,2,2.599153344,384.7407347,2934.646371,-1,-1
1.71E+12,2,2.599140213,384.7426784,2934.647761,-1,-1
1.71E+12,2,2.599126965,384.7446394,2934.649243,-1,-1
1.71E+12,2,2.599113611,384.7466162,2934.650818,-1,-1
1.71E+12,2,2.599100158,384.7486076,2934.652483,-1,-1
1.71E+12,2,2.599086612,384.7506128,2934.654237,-1,-1
1.71E+12,2,2.599072982,384.7526306,2934.656078,-1,-1
1.71E+12,2,2.599059278,384.7546592,2934.658004,-1,-1
1.71E+12,2,2.599045512,384.756697,2934.660012,-1,-1
1.71E+12,2,2.599031698,384.7587419,2934.662098,-1,-1
1.71E+12,2,2.599017852,384.7607916,2934.664261,-1,-1
1.71E+12,2,2.599003989,384.7628438,2934.666497,-1,-1
1.71E+12,2,2.598990121,384.7648967,2934.668801,-1,-1
1.71E+12,2,2.598976263,384.7669482,2934.671166,-1,-1
1.71E+12,2,2.598962429,384.7689961,2934.673582,-1,-1
1.71E+12,2,2.598948634,384.7710383,2934.676037,-1,-1
1.71E+12,2,2.598934889,384.7730731,2934.678519,-1,-1
1.71E+12,2,2.59892121,384.7750982,2934.681017,-1,-1
1.71E+12,2,2.598907611,384.7771113,2934.68352,-1,-1
1.71E+12,2,2.598894103,384.779111,2934.686018,-1,-1
1.71E+12,2,2.598880701,384.7810951,2934.6885,-1,-1
1.71E+12,2,2.598867419,384.7830615,2934.690957,-1,-1
1.71E+12,2,2.598854269,384.7850082,2934.693383,-1,-1
1.71E+12,2,2.598841271,384.7869326,2934.695769,-1,-1
1.71E+12,2,2.598828443,384.7888316,2934.698106,-1,-1
1.71E+12,2,2.598815803,384.7907029,2934.700389,-1,-1
1.71E+12,2,2.598803366,384.7925442,2934.702612,-1,-1
1.71E+12,2,2.598791148,384.7943531,2934.704771,-1,-1
1.71E+12,2,2.598779161,384.7961278,2934.706864,-1,-1
1.71E+12,2,2.598767418,384.7978664,2934.70889,-1,-1
1.71E+12,2,2.598755933,384.7995667,2934.710854,-1,-1
1.71E+12,2,2.598744719,384.8012271,2934.712756,-1,-1
1.71E+12,2,2.598733785,384.8028457,2934.7146,-1,-1
1.71E+12,2,2.598723147,384.8044208,2934.716389,-1,-1
1.71E+12,2,2.598712817,384.8059502,2934.718123,-1,-1
1.71E+12,2,2.598702807,384.8074323,2934.719805,-1,-1
1.71E+12,2,2.598693128,384.8088653,2934.721433,-1,-1
1.71E+12,2,2.598683791,384.8102477,2934.723009,-1,-1
1.71E+12,2,2.598674809,384.8115777,2934.724529,-1,-1
1.71E+12,2,2.598666191,384.8128536,2934.725994,-1,-1
1.71E+12,2,2.598657948,384.8140742,2934.727401,-1,-1
1.71E+12,2,2.598650089,384.8152378,2934.728749,-1,-1
1.71E+12,2,2.598642625,384.816343,2934.730036,-1,-1
1.71E+12,2,2.598635565,384.8173883,2934.731263,-1,-1
1.71E+12,2,2.598628919,384.8183724,2934.732429,-1,-1
1.71E+12,2,2.598622695,384.819294,2934.733534,-1,-1
1.71E+12,2,2.598616903,384.8201516,2934.734576,-1,-1
1.71E+12,2,2.598611552,384.8209439,2934.735555,-1,-1
1.71E+12,2,2.598606651,384.8216696,2934.736469,-1,-1
1.71E+12,2,2.598602207,384.8223277,2934.737316,-1,-1
1.71E+12,2,2.598598229,384.8229168,2934.73809,-1,-1
1.71E+12,2,2.598594723,384.823436,2934.738785,-1,-1
1.71E+12,2,2.598591699,384.8238838,2934.739395,-1,-1
1.71E+12,2,2.598589165,384.8242591,2934.739916,-1,-1
1.71E+12,2,2.598587124,384.8245614,2934.740341,-1,-1
1.71E+12,2,2.59858558,384.8247901,2934.740664,-1,-1
1.71E+12,2,2.598584538,384.8249446,2934.740879,-1,-1
1.71E+12,2,2.598583998,384.8250246,2934.740983,-1,-1
1.71E+12,2,2.598583962,384.8250301,2934.740972,-1,-1
1.71E+12,2,2.598584427,384.8249614,2934.740844,-1,-1
1.71E+12,2,2.598585393,384.8248186,2934.740598,-1,-1
1.71E+12,2,2.59858686,384.8246015,2934.740235,-1,-1
1.71E+12,2,2.59858883,384.82431,2934.73976,-1,-1
1.71E+12,2,2.598591304,384.8239438,2934.739181,-1,-1
1.71E+12,2,2.598594282,384.823503,2934.738505,-1,-1
1.71E+12,2,2.598597764,384.8229877,2934.737742,-1,-1
1.71E+12,2,2.598601746,384.8223983,2934.736903,-1,-1
1.71E+12,2,2.598606226,384.8217352,2934.735995,-1,-1
1.71E+12,2,2.598611203,384.8209985,2934.735025,-1,-1
1.71E+12,2,2.598616675,384.8201884,2934.733999,-1,-1
1.71E+12,2,2.598622639,384.8193055,2934.732921,-1,-1
1.71E+12,2,2.598629091,384.8183504,2934.731793,-1,-1
1.71E+12,2,2.598636026,384.8173239,2934.730621,-1,-1
1.71E+12,2,2.598643437,384.8162269,2934.729406,-1,-1
1.71E+12,2,2.598651319,384.81506,2934.72815,-1,-1
1.71E+12,2,2.598659669,384.8138238,2934.726858,-1,-1
1.71E+12,2,2.598668481,384.8125195,2934.72553,-1,-1
1.71E+12,2,2.598677741,384.8111486,2934.724169,-1,-1
1.71E+12,2,2.59868744,384.8097129,2934.72278,-1,-1
1.71E+12,2,2.598697569,384.8082135,2934.721366,-1,-1
1.71E+12,2,2.598708119,384.8066517,2934.719932,-1,-1
1.71E+12,2,2.598719084,384.8050284,2934.718483,-1,-1
1.71E+12,2,2.598730458,384.8033447,2934.717023,-1,-1
1.71E+12,2,2.59874223,384.801602,2934.715555,-1,-1
1.71E+12,2,2.598754397,384.7998009,2934.714082,-1,-1
1.71E+12,2,2.59876695,384.7979426,2934.712609,-1,-1
1.71E+12,2,2.598779883,384.7960281,2934.711138,-1,-1
1.71E+12,2,2.598793191,384.7940581,2934.709673,-1,-1
1.71E+12,2,2.598806872,384.7920329,2934.708216,-1,-1
1.71E+12,2,2.598820921,384.7899532,2934.706766,-1,-1
1.71E+12,2,2.59883533,384.7878202,2934.705327,-1,-1
1.71E+12,2,2.598850092,384.785635,2934.703895,-1,-1
1.71E+12,2,2.598865197,384.783399,2934.702471,-1,-1
1.71E+12,2,2.598880636,384.7811136,2934.701052,-1,-1
1.71E+12,2,2.598896402,384.7787799,2934.699637,-1,-1
1.71E+12,2,2.598912488,384.7763987,2934.698227,-1,-1
1.71E+12,2,2.59892889,384.7739709,2934.696823,-1,-1
1.71E+12,2,2.598945602,384.771497,2934.695425,-1,-1
1.71E+12,2,2.598962619,384.7689782,2934.694034,-1,-1
1.71E+12,2,2.598979933,384.7664155,2934.69265,-1,-1
1.71E+12,2,2.598997536,384.7638099,2934.691275,-1,-1
1.71E+12,2,2.599015421,384.7611626,2934.689909,-1,-1
1.71E+12,2,2.59903358,384.7584748,2934.68855,-1,-1
1.71E+12,2,2.599052006,384.7557475,2934.687197,-1,-1
1.71E+12,2,2.599070695,384.7529813,2934.685849,-1,-1
1.71E+12,2,2.599089641,384.7501772,2934.684503,-1,-1
1.71E+12,2,2.599108837,384.747336,2934.683159,-1,-1
1.71E+12,2,2.599128279,384.7444585,2934.681813,-1,-1
1.71E+12,2,2.59914796,384.7415457,2934.680465,-1,-1
1.71E+12,2,2.599167873,384.7385984,2934.67911,-1,-1
1.71E+12,2,2.599188017,384.7356172,2934.677747,-1,-1
1.71E+12,2,2.599208386,384.7326025,2934.676377,-1,-1
1.71E+12,2,2.599228978,384.7295551,2934.674998,-1,-1
1.71E+12,2,2.599249788,384.7264754,2934.673608,-1,-1
1.71E+12,2,2.599270813,384.7233638,2934.672209,-1,-1
1.71E+12,2,2.599292051,384.7202208,2934.670797,-1,-1
1.71E+12,2,2.599313501,384.7170465,2934.669371,-1,-1
1.71E+12,2,2.599335158,384.7138415,2934.66793,-1,-1
1.71E+12,2,2.599357018,384.7106067,2934.666473,-1,-1
1.71E+12,2,2.599379077,384.7073424,2934.664996,-1,-1
1.71E+12,2,2.599401336,384.7040485,2934.663498,-1,-1
1.71E+12,2,2.599423795,384.7007251,2934.661974,-1,-1
1.71E+12,2,2.599446451,384.6973726,2934.660422,-1,-1
1.71E+12,2,2.5994693,384.6939915,2934.658838,-1,-1
1.71E+12,2,2.599492341,384.6905822,2934.657216,-1,-1
1.71E+12,2,2.599515573,384.6871448,2934.655554,-1,-1
1.71E+12,2,2.599538995,384.6836791,2934.653849,-1,-1
1.71E+12,2,2.599562611,384.6801849,2934.652098,-1,-1
1.71E+12,2,2.59958642,384.6766621,2934.650299,-1,-1
1.71E+12,2,2.599610425,384.6731104,2934.64845,-1,-1
1.71E+12,2,2.599634628,384.6695295,2934.646551,-1,-1
1.71E+12,2,2.599659028,384.6659195,2934.644604,-1,-1
1.71E+12,2,2.599683627,384.6622802,2934.642613,-1,-1
1.71E+12,2,2.599708425,384.6586114,2934.640584,-1,-1
1.71E+12,2,2.599733425,384.6549128,2934.638521,-1,-1
1.71E+12,2,2.59975863,384.651184,2934.636428,-1,-1
1.71E+12,2,2.599784039,384.6474251,2934.634308,-1,-1
1.71E+12,2,2.599809652,384.6436361,2934.632161,-1,-1
1.71E+12,2,2.599835469,384.639817,2934.629985,-1,-1
1.71E+12,2,2.599861492,384.6359675,2934.627776,-1,-1
1.71E+12,2,2.599887722,384.6320875,2934.62553,-1,-1
1.71E+12,2,2.599914158,384.6281769,2934.623241,-1,-1
1.71E+12,2,2.599940804,384.6242355,2934.620902,-1,-1
1.71E+12,2,2.599967661,384.6202629,2934.618508,-1,-1
1.71E+12,2,2.599994728,384.6162594,2934.616055,-1,-1
1.71E+12,2,2.600022005,384.6122249,2934.61354,-1,-1
1.71E+12,2,2.600049491,384.6081594,2934.610963,-1,-1
1.71E+12,2,2.60007719,384.6040627,2934.608321,-1,-1
1.71E+12,2,2.600105105,384.599934,2934.605618,-1,-1
1.71E+12,2,2.600133237,384.5957735,2934.602853,-1,-1
1.71E+12,2,2.60016158,384.5915817,2934.60003,-1,-1
1.71E+12,2,2.600190133,384.5873589,2934.597153,-1,-1
1.71E+12,2,2.600218896,384.5831053,2934.594224,-1,-1
1.71E+12,2,2.600247864,384.5788214,2934.591248,-1,-1
1.71E+12,2,2.60027704,384.5745068,2934.588229,-1,-1
1.71E+12,2,2.600306426,384.5701613,2934.585169,-1,-1
1.71E+12,2,2.600336021,384.5657849,2934.582073,-1,-1
1.71E+12,2,2.600365822,384.5613782,2934.578945,-1,-1
1.71E+12,2,2.600395831,384.5569409,2934.575792,-1,-1
1.71E+12,2,2.600426046,384.5524731,2934.572617,-1,-1
1.71E+12,2,2.600456464,384.5479756,2934.569426,-1,-1
1.71E+12,2,2.600487082,384.5434483,2934.566223,-1,-1
1.71E+12,2,2.600517902,384.5388915,2934.563015,-1,-1
1.71E+12,2,2.600548925,384.5343048,2934.559808,-1,-1
1.71E+12,2,2.600580153,384.5296879,2934.556605,-1,-1
1.71E+12,2,2.600611587,384.5250406,2934.553414,-1,-1
1.71E+12,2,2.600643228,384.5203627,2934.550239,-1,-1
1.71E+12,2,2.600675076,384.5156545,2934.547086,-1,-1
1.71E+12,2,2.600707127,384.5109162,2934.543961,-1,-1
1.71E+12,2,2.600739384,384.5061477,2934.54087,-1,-1
1.71E+12,2,2.600771848,384.5013488,2934.537818,-1,-1
1.71E+12,2,2.600804517,384.4965195,2934.53481,-1,-1
1.71E+12,2,2.600837393,384.4916599,2934.53185,-1,-1
1.71E+12,2,2.600870476,384.4867699,2934.528943,-1,-1
1.71E+12,2,2.600903764,384.4818496,2934.526095,-1,-1
1.71E+12,2,2.600937255,384.4768994,2934.523314,-1,-1
1.71E+12,2,2.600970944,384.4719202,2934.520611,-1,-1
1.71E+12,2,2.601004826,384.4669125,2934.517997,-1,-1
1.71E+12,2,2.601038896,384.4618772,2934.515485,-1,-1
1.71E+12,2,2.601073148,384.4568151,2934.513084,-1,-1
1.71E+12,2,2.601107579,384.4517267,2934.510806,-1,-1
1.71E+12,2,2.601142187,384.4466123,2934.508658,-1,-1
1.71E+12,2,2.601176973,384.4414717,2934.506647,-1,-1
1.71E+12,2,2.601211934,384.4363054,2934.504777,-1,-1
1.71E+12,2,2.601247068,384.4311137,2934.503052,-1,-1
1.71E+12,2,2.601282369,384.4258974,2934.501475,-1,-1
1.71E+12,2,2.601317834,384.420657,2934.500047,-1,-1
1.71E+12,2,2.60135346,384.4153931,2934.498769,-1,-1
1.71E+12,2,2.601389239,384.4101065,2934.497639,-1,-1
1.71E+12,2,2.601425167,384.4047982,2934.496657,-1,-1
1.71E+12,2,2.601461243,384.3994682,2934.495821,-1,-1
1.71E+12,2,2.601497464,384.3941168,2934.495129,-1,-1
1.71E+12,2,2.601533828,384.3887446,2934.494579,-1,-1
1.71E+12,2,2.601570329,384.3833521,2934.494166,-1,-1
1.71E+12,2,2.601606961,384.3779404,2934.493891,-1,-1
1.71E+12,2,2.601643718,384.3725106,2934.49375,-1,-1
1.71E+12,2,2.601680592,384.3670635,2934.493741,-1,-1
1.71E+12,2,2.601717577,384.3616002,2934.493861,-1,-1
1.71E+12,2,2.601754666,384.3561216,2934.494111,-1,-1
1.71E+12,2,2.601791854,384.3506286,2934.494487,-1,-1
1.71E+12,2,2.601829138,384.3451216,2934.494988,-1,-1
1.71E+12,2,2.601866513,384.3396012,2934.495613,-1,-1
1.71E+12,2,2.601903974,384.3340683,2934.496359,-1,-1
1.71E+12,2,2.601941514,384.3285239,2934.497225,-1,-1
1.71E+12,2,2.601979126,384.3229689,2934.498207,-1,-1
1.71E+12,2,2.602016806,384.3174041,2934.499302,-1,-1
1.71E+12,2,2.602054547,384.3118305,2934.500506,-1,-1
1.71E+12,2,2.602092342,384.3062489,2934.501815,-1,-1
1.71E+12,2,2.602130186,384.3006603,2934.503222,-1,-1
1.71E+12,2,2.602168072,384.2950657,2934.50472,-1,-1
1.71E+12,2,2.60220599,384.2894664,2934.506301,-1,-1
1.71E+12,2,2.602243933,384.2838636,2934.507958,-1,-1
1.71E+12,2,2.602281894,384.2782583,2934.509683,-1,-1
1.71E+12,2,2.602319865,384.2726516,2934.511472,-1,-1
1.71E+12,2,2.602357837,384.2670448,2934.513324,-1,-1
1.71E+12,2,2.602395805,384.261439,2934.515237,-1,-1
1.71E+12,2,2.602433761,384.2558348,2934.517213,-1,-1
1.71E+12,2,2.602471698,384.2502337,2934.519249,-1,-1
1.71E+12,2,2.602509607,384.244637,2934.521344,-1,-1
1.71E+12,2,2.602547478,384.2390458,2934.523497,-1,-1
1.71E+12,2,2.6025853,384.2334621,2934.525706,-1,-1
1.71E+12,2,2.602623064,384.227887,2934.527966,-1,-1
1.71E+12,2,2.602660764,384.2223214,2934.530275,-1,-1
1.71E+12,2,2.602698393,384.2167666,2934.532628,-1,-1
1.71E+12,2,2.602735936,384.2112245,2934.535021,-1,-1
1.71E+12,2,2.602773383,384.2056968,2934.537447,-1,-1
1.71E+12,2,2.602810724,384.2001848,2934.539895,-1,-1
1.71E+12,2,2.602847953,384.1946893,2934.542353,-1,-1
1.71E+12,2,2.602885069,384.1892108,2934.544806,-1,-1
1.71E+12,2,2.602922069,384.1837496,2934.547241,-1,-1
1.71E+12,2,2.602958945,384.1783066,2934.549644,-1,-1
1.71E+12,2,2.602995693,384.1728827,2934.552002,-1,-1
1.71E+12,2,2.603032308,384.1674786,2934.554303,-1,-1
1.71E+12,2,2.603068785,384.162095,2934.556533,-1,-1
1.71E+12,2,2.603105118,384.1567327,2934.558685,-1,-1
1.71E+12,2,2.603141302,384.1513925,2934.560748,-1,-1
1.71E+12,2,2.603177331,384.1460753,2934.562717,-1,-1
1.71E+12,2,2.603213201,384.1407817,2934.564586,-1,-1
1.71E+12,2,2.603248905,384.1355126,2934.566348,-1,-1
1.71E+12,2,2.60328444,384.1302688,2934.567999,-1,-1
1.71E+12,2,2.603319798,384.125051,2934.569535,-1,-1
1.71E+12,2,2.603354977,384.1198598,2934.570953,-1,-1
1.71E+12,2,2.603389972,384.1146959,2934.572248,-1,-1
1.71E+12,2,2.603424782,384.1095594,2934.573415,-1,-1
1.71E+12,2,2.603459407,384.1044503,2934.574449,-1,-1
1.71E+12,2,2.603493845,384.0993689,2934.575346,-1,-1
1.71E+12,2,2.603528095,384.0943154,2934.576107,-1,-1
1.71E+12,2,2.603562153,384.0892902,2934.57673,-1,-1
1.71E+12,2,2.603596018,384.0842937,2934.577216,-1,-1
1.71E+12,2,2.603629685,384.0793266,2934.577569,-1,-1
1.71E+12,2,2.603663151,384.0743891,2934.577793,-1,-1
1.71E+12,2,2.603696415,384.0694816,2934.577897,-1,-1
1.71E+12,2,2.603729474,384.0646045,2934.577888,-1,-1
1.71E+12,2,2.603762324,384.0597583,2934.577772,-1,-1
1.71E+12,2,2.603794966,384.0549429,2934.57756,-1,-1
1.71E+12,2,2.603827399,384.0501584,2934.57726,-1,-1
1.71E+12,2,2.603859626,384.0454044,2934.576881,-1,-1
1.71E+12,2,2.60389165,384.0406805,2934.576433,-1,-1
1.71E+12,2,2.603923475,384.0359861,2934.575924,-1,-1
1.71E+12,2,2.603955107,384.0313202,2934.575363,-1,-1
1.71E+12,2,2.603986553,384.026682,2934.574757,-1,-1
1.71E+12,2,2.604017816,384.0220708,2934.57411,-1,-1
1.71E+12,2,2.604048897,384.0174865,2934.573425,-1,-1
1.71E+12,2,2.604079798,384.012929,2934.572704,-1,-1
1.71E+12,2,2.604110521,384.0083977,2934.571947,-1,-1
1.71E+12,2,2.604141072,384.0038921,2934.571153,-1,-1
1.71E+12,2,2.604171453,383.9994114,2934.570322,-1,-1
1.71E+12,2,2.604201673,383.9949548,2934.569454,-1,-1
1.71E+12,2,2.604231735,383.9905216,2934.568549,-1,-1
1.71E+12,2,2.604261647,383.9861105,2934.567608,-1,-1
1.71E+12,2,2.604291415,383.9817207,2934.566634,-1,-1
1.71E+12,2,2.604321045,383.9773516,2934.56563,-1,-1
1.71E+12,2,2.604350541,383.9730022,2934.5646,-1,-1
1.71E+12,2,2.604379908,383.968672,2934.563549,-1,-1
1.71E+12,2,2.604409151,383.9643602,2934.562481,-1,-1
1.71E+12,2,2.604438277,383.9600657,2934.561404,-1,-1
1.71E+12,2,2.604467295,383.9557873,2934.560323,-1,-1
1.71E+12,2,2.604496212,383.9515239,2934.559245,-1,-1
1.71E+12,2,2.604525037,383.9472741,2934.558178,-1,-1
1.71E+12,2,2.604553778,383.9430368,2934.557126,-1,-1
1.71E+12,2,2.604582442,383.938811,2934.556093,-1,-1
1.71E+12,2,2.604611034,383.9345959,2934.555084,-1,-1
1.71E+12,2,2.604639564,383.9303902,2934.554103,-1,-1
1.71E+12,2,2.604668036,383.9261929,2934.553155,-1,-1
1.71E+12,2,2.604696456,383.9220035,2934.552242,-1,-1
1.71E+12,2,2.604724828,383.9178213,2934.551366,-1,-1
1.71E+12,2,2.604753158,383.9136455,2934.550531,-1,-1
1.71E+12,2,2.604781448,383.9094755,2934.549737,-1,-1
1.71E+12,2,2.604809701,383.9053112,2934.548987,-1,-1
1.71E+12,2,2.60483792,383.9011519,2934.548284,-1,-1
1.71E+12,2,2.604866113,383.8969966,2934.547632,-1,-1
1.71E+12,2,2.604894284,383.8928447,2934.547034,-1,-1
1.71E+12,2,2.604922439,383.8886952,2934.546498,-1,-1
1.71E+12,2,2.604950581,383.8845477,2934.546028,-1,-1
1.71E+12,2,2.604978714,383.8804016,2934.545631,-1,-1
1.71E+12,2,2.60500684,383.8762566,2934.54531,-1,-1
1.71E+12,2,2.605034964,383.8721121,2934.545072,-1,-1
1.71E+12,2,2.605063086,383.867968,2934.54492,-1,-1
1.71E+12,2,2.605091207,383.863824,2934.544856,-1,-1
1.71E+12,2,2.605119333,383.8596796,2934.544879,-1,-1
1.71E+12,2,2.605147467,383.855534,2934.54499,-1,-1
1.71E+12,2,2.605175615,383.8513864,2934.545185,-1,-1
1.71E+12,2,2.605203781,383.8472363,2934.545461,-1,-1
1.71E+12,2,2.605231967,383.8430832,2934.545817,-1,-1
1.71E+12,2,2.605260175,383.8389271,2934.546249,-1,-1
1.71E+12,2,2.605288406,383.8347676,2934.546756,-1,-1
1.71E+12,2,2.605316664,383.8306043,2934.547337,-1,-1
1.71E+12,2,2.605344955,383.8264363,2934.547989,-1,-1
1.71E+12,2,2.605373281,383.8222631,2934.548709,-1,-1
1.71E+12,2,2.605401647,383.8180841,2934.549495,-1,-1
1.71E+12,2,2.605430054,383.8138992,2934.550344,-1,-1
1.71E+12,2,2.605458502,383.8097082,2934.551251,-1,-1
1.71E+12,2,2.605486995,383.8055109,2934.552214,-1,-1
1.71E+12,2,2.60551553,383.8013074,2934.553226,-1,-1
1.71E+12,2,2.605544106,383.7970979,2934.554283,-1,-1
1.71E+12,2,2.605572727,383.7928819,2934.555381,-1,-1
1.71E+12,2,2.605601394,383.7886592,2934.556515,-1,-1
1.71E+12,2,2.60563011,383.7844294,2934.557678,-1,-1
1.71E+12,2,2.605658876,383.7801924,2934.558865,-1,-1
1.71E+12,2,2.60568769,383.7759482,2934.560072,-1,-1
1.71E+12,2,2.605716551,383.7716973,2934.561297,-1,-1
1.71E+12,2,2.605745457,383.7674399,2934.562536,-1,-1
1.71E+12,2,2.605774403,383.7631767,2934.563787,-1,-1
1.71E+12,2,2.605803386,383.758908,2934.565047,-1,-1
1.71E+12,2,2.605832406,383.754634,2934.566311,-1,-1
1.71E+12,2,2.605861462,383.7503549,2934.567576,-1,-1
1.71E+12,2,2.605890553,383.7460707,2934.568838,-1,-1
1.71E+12,2,2.605919676,383.7417818,2934.570094,-1,-1
1.71E+12,2,2.605948831,383.7374884,2934.571341,-1,-1
1.71E+12,2,2.605978016,383.7331906,2934.572573,-1,-1
1.71E+12,2,2.606007231,383.7288885,2934.573791,-1,-1
1.71E+12,2,2.606036474,383.7245824,2934.57499,-1,-1
1.71E+12,2,2.606065742,383.7202726,2934.576169,-1,-1
1.71E+12,2,2.606095035,383.7159593,2934.577324,-1,-1
1.71E+12,2,2.60612435,383.7116429,2934.578449,-1,-1
1.71E+12,2,2.606153682,383.7073239,2934.579541,-1,-1
1.71E+12,2,2.606183032,383.7030025,2934.580594,-1,-1
1.71E+12,2,2.606212397,383.698679,2934.581604,-1,-1
1.71E+12,2,2.606241773,383.6943539,2934.582568,-1,-1