Shimmer_89F4_TimestampSync_Unix_CAL,Shimmer_89F4_ECG_EMG_Status1_LPF_CAL,Shimmer_89F4_ECG_EMG_Status2_LPF_CAL,Shimmer_89F4_ECG_IBI_LA_RA_LPF_CAL,Shimmer_89F4_ECG_IBI_LL_LA_LPF_CAL,Shimmer_89F4_ECG_IBI_LL_RA_LPF_CAL,Shimmer_89F4_ECG_IBI_Vx_RL_LPF_CAL,Shimmer_89F4_ECG_LA_RA_24BIT_LPF_CAL,Shimmer_89F4_ECG_LL_LA_24BIT_LPF_CAL,Shimmer_89F4_ECG_LL_RA_24BIT_LPF_CAL,Shimmer_89F4_ECG_Vx_RL_24BIT_LPF_CAL,Shimmer_89F4_ECGtoHR_LA_RA_LPF_CAL,Shimmer_89F4_ECGtoHR_LL_LA_LPF_CAL,Shimmer_89F4_ECGtoHR_LL_RA_LPF_CAL,Shimmer_89F4_ECGtoHR_Vx_RL_LPF_CAL
1.71E+12,128,128,-1,-1,-1,-1,53.38320355,10.32197539,63.70517894,-605.0000721,-1,-1,-1,-1
1.71E+12,128,128,-1,-1,-1,-1,53.38320355,10.32197539,63.70517894,-605.0000721,-1,-1,-1,-1
1.71E+12,128,128,-1,-1,-1,-1,53.38320354,10.3219754,63.70517894,-605.0000721,-1,-1,-1,-1
1.71E+12,128,128,-1,-1,-1,-1,53.38320349,10.32197543,63.70517893,-605.0000721,-1,-1,-1,-1
1.71E+12,128,128,-1,-1,-1,-1,53.38320337,10.3219755,63.70517887,-605.0000721,-1,-1,-1,-1
1.71E+12,128,128,-1,-1,-1,-1,53.38320313,10.32197559,63.70517873,-605.0000721,-1,-1,-1,-1
1.71E+12,128,128,-1,-1,-1,-1,53.38320275,10.32197569,63.70517843,-605.0000721,-1,-1,-1,-1
1.71E+12,128,128,-1,-1,-1,-1,53.3832022,10.32197575,63.70517795,-605.0000721,-1,-1,-1,-1
1.71E+12,128,128,-1,-1,-1,-1,53.38320148,10.32197576,63.70517724,-605.0000721,-1,-1,-1,-1
1.71E+12,128,128,-1,-1,-1,-1,53.38320056,10.32197573,63.70517629,-605.0000721,-1,-1,-1,-1
1.71E+12,128,128,-1,-1,-1,-1,53.38319941,10.32197566,63.70517506,-605.0000721,-1,-1,-1,-1
1.71E+12,128,128,-1,-1,-1,-1,53.38319799,10.32197555,63.70517354,-605.0000721,-1,-1,-1,-1
1.71E+12,128,128,-1,-1,-1,-1,53.38319627,10.32197542,63.70517169,-605.0000721,-1,-1,-1,-1
1.71E+12,128,128,-1,-1,-1,-1,53.38319422,10.32197523,63.70516944,-605.0000721,-1,-1,-1,-1
1.71E+12,128,128,-1,-1,-1,-1,53.38319181,10.32197496,63.70516678,-605.0000721,-1,-1,-1,-1
1.71E+12,128,128,-1,-1,-1,-1,53.38318904,10.32197462,63.70516366,-605.0000721,-1,-1,-1,-1
1.71E+12,128,128,-1,-1,-1,-1,53.3831859,10.32197419,63.70516009,-605.0000721,-1,-1,-1,-1
1.71E+12,128,128,-1,-1,-1,-1,53.38318238,10.32197367,63.70515605,-605.0000721,-1,-1,-1,-1
1.71E+12,128,128,-1,-1,-1,-1,53.38317848,10.32197306,63.70515154,-605.0000721,-1,-1,-1,-1
1.71E+12,128,128,-1,-1,-1,-1,53.38317416,10.32197236,63.70514653,-605.0000721,-1,-1,-1,-1
1.71E+12,128,128,-1,-1,-1,-1,53.38316941,10.32197159,63.705141,-605.0000721,-1,-1,-1,-1
1.71E+12,128,128,-1,-1,-1,-1,53.38316418,10.32197075,63.70513493,-605.0000721,-1,-1,-1,-1
1.71E+12,128,128,-1,-1,-1,-1,53.38315846,10.32196983,63.7051283,-605.0000721,-1,-1,-1,-1
1.71E+12,128,128,-1,-1,-1,-1,53.38315225,10.32196885,63.7051211,-605.0000721,-1,-1,-1,-1
1.71E+12,128,128,-1,-1,-1,-1,53.38314555,10.32196781,63.70511336,-605.0000721,-1,-1,-1,-1
1.71E+12,128,128,-1,-1,-1,-1,53.3831384,10.32196671,63.70510511,-605.0000721,-1,-1,-1,-1
1.71E+12,128,128,-1,-1,-1,-1,53.38313084,10.32196557,63.70509641,-605.0000721,-1,-1,-1,-1
1.71E+12,128,128,-1,-1,-1,-1,53.38312289,10.32196441,63.7050873,-605.0000721,-1,-1,-1,-1
1.71E+12,128,128,-1,-1,-1,-1,53.38311458,10.32196325,63.70507783,-605.0000721,-1,-1,-1,-1
1.71E+12,128,128,-1,-1,-1,-1,53.38310593,10.32196211,63.70506804,-605.0000721,-1,-1,-1,-1
1.71E+12,128,128,-1,-1,-1,-1,53.38309699,10.321961,63.70505799,-605.0000721,-1,-1,-1,-1
1.71E+12,128,128,-1,-1,-1,-1,53.38308781,10.32195994,63.70504776,-605.0000721,-1,-1,-1,-1
1.71E+12,128,128,-1,-1,-1,-1,53.38307849,10.32195896,63.70503746,-605.0000721,-1,-1,-1,-1
1.71E+12,128,128,-1,-1,-1,-1,53.38306914,10.32195808,63.70502722,-605.0000721,-1,-1,-1,-1
1.71E+12,128,128,-1,-1,-1,-1,53.38305991,10.32195731,63.70501722,-605.0000721,-1,-1,-1,-1
1.71E+12,128,128,-1,-1,-1,-1,53.38305094,10.32195673,63.70500766,-605.0000721,-1,-1,-1,-1
1.71E+12,128,128,-1,-1,-1,-1,53.38304239,10.32195636,63.70499875,-605.0000721,-1,-1,-1,-1
1.71E+12,128,128,-1,-1,-1,-1,53.38303442,10.32195628,63.7049907,-605.0000721,-1,-1,-1,-1
1.71E+12,128,128,-1,-1,-1,-1,53.38302722,10.3219565,63.70498372,-605.0000721,-1,-1,-1,-1
1.71E+12,128,128,-1,-1,-1,-1,53.38302101,10.32195704,63.70497805,-605.0000721,-1,-1,-1,-1
1.71E+12,128,128,-1,-1,-1,-1,53.38301607,10.32195792,63.70497399,-605.0000721,-1,-1,-1,-1
1.71E+12,128,128,-1,-1,-1,-1,53.38301271,10.32195915,63.70497186,-605.0000721,-1,-1,-1,-1
1.71E+12,128,128,-1,-1,-1,-1,53.38301126,10.32196075,63.70497202,-605.0000721,-1,-1,-1,-1
1.71E+12,128,128,-1,-1,-1,-1,53.3830121,10.32196274,63.70497485,-605.0000721,-1,-1,-1,-1
1.71E+12,128,128,-1,-1,-1,-1,53.38301561,10.32196514,63.70498075,-605.0000721,-1,-1,-1,-1
1.71E+12,128,128,-1,-1,-1,-1,53.38302217,10.32196798,63.70499015,-605.0000721,-1,-1,-1,-1
1.71E+12,128,128,-1,-1,-1,-1,53.38303216,10.32197132,63.70500348,-605.0000721,-1,-1,-1,-1
1.71E+12,128,128,-1,-1,-1,-1,53.38304598,10.3219752,63.70502118,-605.0000721,-1,-1,-1,-1
1.71E+12,128,128,-1,-1,-1,-1,53.38306409,10.32197968,63.70504377,-605.0000721,-1,-1,-1,-1
1.71E+12,128,128,-1,-1,-1,-1,53.38308699,10.3219848,63.70507179,-605.0000721,-1,-1,-1,-1
1.71E+12,128,128,-1,-1,-1,-1,53.38311522,10.32199058,63.70510581,-605.0000721,-1,-1,-1,-1
1.71E+12,128,128,-1,-1,-1,-1,53.38314938,10.32199707,63.70514645,-605.0000721,-1,-1,-1,-1
1.71E+12,128,128,-1,-1,-1,-1,53.38319007,10.32200429,63.70519436,-605.0000721,-1,-1,-1,-1
1.71E+12,128,128,-1,-1,-1,-1,53.38323792,10.32201226,63.70525017,-605.0000721,-1,-1,-1,-1
1.71E+12,128,128,-1,-1,-1,-1,53.38329354,10.32202099,63.70531453,-605.0000721,-1,-1,-1,-1
1.71E+12,128,128,-1,-1,-1,-1,53.38335757,10.32203053,63.7053881,-605.0000721,-1,-1,-1,-1
1.71E+12,128,128,-1,-1,-1,-1,53.38343069,10.3220409,63.70547159,-605.0000721,-1,-1,-1,-1
1.71E+12,128,128,-1,-1,-1,-1,53.38351361,10.32205212,63.70556573,-605.0000721,-1,-1,-1,-1
1.71E+12,128,128,-1,-1,-1,-1,53.38360707,10.32206422,63.70567128,-605.0000721,-1,-1,-1,-1
1.71E+12,128,128,-1,-1,-1,-1,53.38371183,10.32207721,63.70578904,-605.0000721,-1,-1,-1,-1
1.71E+12,128,128,-1,-1,-1,-1,53.38382873,10.32209113,63.70591986,-605.0000721,-1,-1,-1,-1
1.71E+12,128,128,-1,-1,-1,-1,53.38395858,10.32210599,63.70606458,-605.0000721,-1,-1,-1,-1
1.71E+12,128,128,-1,-1,-1,-1,53.38410223,10.32212182,63.70622405,-605.0000721,-1,-1,-1,-1
1.71E+12,128,128,-1,-1,-1,-1,53.38426055,10.32213861,63.70639916,-605.0000721,-1,-1,-1,-1
1.71E+12,128,128,-1,-1,-1,-1,53.38443441,10.32215634,63.70659075,-605.0000721,-1,-1,-1,-1
1.71E+12,128,128,-1,-1,-1,-1,53.38462471,10.32217501,63.70679972,-605.0000721,-1,-1,-1,-1
1.71E+12,128,128,-1,-1,-1,-1,53.38483235,10.3221946,63.70702695,-605.0000721,-1,-1,-1,-1
1.71E+12,128,128,-1,-1,-1,-1,53.38505825,10.32221509,63.70727335,-605.0000721,-1,-1,-1,-1
1.71E+12,128,128,-1,-1,-1,-1,53.38530332,10.32223648,63.70753981,-605.0000721,-1,-1,-1,-1
1.71E+12,128,128,-1,-1,-1,-1,53.38556847,10.32225878,63.70782725,-605.0000721,-1,-1,-1,-1
1.71E+12,128,128,-1,-1,-1,-1,53.38585459,10.322282,63.70813659,-605.0000721,-1,-1,-1,-1
1.71E+12,128,128,-1,-1,-1,-1,53.38616256,10.32230616,63.70846872,-605.0000721,-1,-1,-1,-1
1.71E+12,128,128,-1,-1,-1,-1,53.3864933,10.32233122,63.70882452,-605.0000721,-1,-1,-1,-1
1.71E+12,128,128,-1,-1,-1,-1,53.38684774,10.32235712,63.70920485,-605.0000721,-1,-1,-1,-1
1.71E+12,128,128,-1,-1,-1,-1,53.38722682,10.32238377,63.70961059,-605.0000721,-1,-1,-1,-1
1.71E+12,128,128,-1,-1,-1,-1,53.38763147,10.3224111,63.71004258,-605.0000721,-1,-1,-1,-1
1.71E+12,128,128,-1,-1,-1,-1,53.38806264,10.32243905,63.71050169,-605.0000721,-1,-1,-1,-1
1.71E+12,128,128,-1,-1,-1,-1,53.38852124,10.32246755,63.71098879,-605.0000721,-1,-1,-1,-1
1.71E+12,128,128,-1,-1,-1,-1,53.38900815,10.32249654,63.71150469,-605.0000721,-1,-1,-1,-1
1.71E+12,128,128,-1,-1,-1,-1,53.38952425,10.32252597,63.71205021,-605.0000721,-1,-1,-1,-1
1.71E+12,128,128,-1,-1,-1,-1,53.39007037,10.32255575,63.71262612,-605.0000721,-1,-1,-1,-1
1.71E+12,128,128,-1,-1,-1,-1,53.39064735,10.3225858,63.71323315,-605.0000721,-1,-1,-1,-1
1.71E+12,128,128,-1,-1,-1,-1,53.39125597,10.322616,63.71387198,-605.0000721,-1,-1,-1,-1
1.71E+12,128,128,-1,-1,-1,-1,53.39189704,10.32264625,63.71454329,-605.0000721,-1,-1,-1,-1
1.71E+12,128,128,-1,-1,-1,-1,53.39257134,10.32267639,63.71524773,-605.0000721,-1,-1,-1,-1
1.71E+12,128,128,-1,-1,-1,-1,53.39327962,10.32270629,63.71598592,-605.0000721,-1,-1,-1,-1
1.71E+12,128,128,-1,-1,-1,-1,53.39402261,10.3227358,63.71675841,-605.0000721,-1,-1,-1,-1
1.71E+12,128,128,-1,-1,-1,-1,53.39480098,10.32276476,63.71756574,-605.0000721,-1,-1,-1,-1
1.71E+12,128,128,-1,-1,-1,-1,53.39561533,10.32279302,63.71840835,-605.0000721,-1,-1,-1,-1
1.71E+12,128,128,-1,-1,-1,-1,53.39646625,10.3228204,63.71928665,-605.0000721,-1,-1,-1,-1
1.71E+12,128,128,-1,-1,-1,-1,53.39735426,10.32284671,63.72020096,-605.0000721,-1,-1,-1,-1
1.71E+12,128,128,-1,-1,-1,-1,53.39827984,10.32287175,63.72115159,-605.0000721,-1,-1,-1,-1
1.71E+12,128,128,-1,-1,-1,-1,53.39924343,10.32289532,63.72213875,-605.0000721,-1,-1,-1,-1
1.71E+12,128,128,-1,-1,-1,-1,53.40024544,10.32291721,63.72316265,-605.0000721,-1,-1,-1,-1
1.71E+12,128,128,-1,-1,-1,-1,53.40128622,10.32293719,63.72422341,-605.0000721,-1,-1,-1,-1
1.71E+12,128,128,-1,-1,-1,-1,53.40236607,10.32295503,63.72532109,-605.0000721,-1,-1,-1,-1
1.71E+12,128,128,-1,-1,-1,-1,53.40348521,10.32297049,63.72645569,-605.0000721,-1,-1,-1,-1
1.71E+12,128,128,-1,-1,-1,-1,53.40464378,10.32298333,63.72762711,-605.0000721,-1,-1,-1,-1
1.71E+12,128,128,-1,-1,-1,-1,53.40584188,10.3229933,63.72883518,-605.0000721,-1,-1,-1,-1
1.71E+12,128,128,-1,-1,-1,-1,53.40707952,10.32300015,63.73007966,-605.0000721,-1,-1,-1,-1
1.71E+12,128,128,-1,-1,-1,-1,53.40835666,10.32300361,63.73136027,-605.0000721,-1,-1,-1,-1
1.71E+12,128,128,-1,-1,-1,-1,53.40967321,10.32300342,63.73267663,-605.0000721,-1,-1,-1,-1
1.71E+12,128,128,-1,-1,-1,-1,53.41102904,10.32299928,63.73402833,-605.0000721,-1,-1,-1,-1
1.71E+12,128,128,-1,-1,-1,-1,53.41242393,10.32299094,63.73541487,-605.0000721,-1,-1,-1,-1
1.71E+12,128,128,-1,-1,-1,-1,53.41385756,10.32297811,63.73683567,-605.0000721,-1,-1,-1,-1
1.71E+12,128,128,-1,-1,-1,-1,53.41532955,10.32296053,63.73829008,-605.0000721,-1,-1,-1,-1
1.71E+12,128,128,-1,-1,-1,-1,53.41683941,10.32293794,63.73977735,-605.0000721,-1,-1,-1,-1
1.71E+12,128,128,-1,-1,-1,-1,53.41838662,10.32291003,63.74129665,-605.0000721,-1,-1,-1,-1
1.71E+12,128,128,-1,-1,-1,-1,53.41997059,10.3228765,63.74284709,-605.0000721,-1,-1,-1,-1
1.71E+12,128,128,-1,-1,-1,-1,53.42159069,10.32283704,63.74442772,-605.0000721,-1,-1,-1,-1
1.71E+12,128,128,-1,-1,-1,-1,53.42324623,10.3227913,63.74603753,-605.0000721,-1,-1,-1,-1
1.71E+12,128,128,-1,-1,-1,-1,53.42493647,10.32273897,63.74767544,-605.0000721,-1,-1,-1,-1
1.71E+12,128,128,-1,-1,-1,-1,53.42666057,10.32267971,63.74934028,-605.0000721,-1,-1,-1,-1
1.71E+12,128,128,-1,-1,-1,-1,53.4284176,10.32261322,63.75103083,-605.0000721,-1,-1,-1,-1
1.71E+12,128,128,-1,-1,-1,-1,53.43020657,10.32253919,63.75274576,-605.0000721,-1,-1,-1,-1
1.71E+12,128,128,-1,-1,-1,-1,53.43202642,10.3224573,63.75448372,-605.0000721,-1,-1,-1,-1
1.71E+12,128,128,-1,-1,-1,-1,53.43387606,10.32236725,63.75624331,-605.0000721,-1,-1,-1,-1
1.71E+12,128,128,-1,-1,-1,-1,53.43575437,10.32226874,63.75802312,-605.0000721,-1,-1,-1,-1
1.71E+12,128,128,-1,-1,-1,-1,53.43766023,10.32216146,63.75982168,-605.0000721,-1,-1,-1,-1
1.71E+12,128,128,-1,-1,-1,-1,53.43959243,10.32204508,63.76163751,-605.0000721,-1,-1,-1,-1
1.71E+12,128,128,-1,-1,-1,-1,53.44154975,10.3219193,63.76346905,-605.0000721,-1,-1,-1,-1
1.71E+12,128,128,-1,-1,-1,-1,53.44353092,10.3217838,63.76531472,-605.0000721,-1,-1,-1,-1
1.71E+12,128,128,-1,-1,-1,-1,53.44553461,10.32163826,63.76717287,-605.0000721,-1,-1,-1,-1
1.71E+12,128,128,-1,-1,-1,-1,53.44755942,10.3214824,63.76904182,-605.0000721,-1,-1,-1,-1
1.71E+12,128,128,-1,-1,-1,-1,53.44960393,10.32131591,63.77091984,-605.0000721,-1,-1,-1,-1
1.71E+12,128,128,-1,-1,-1,-1,53.45166671,10.32113847,63.77280518,-605.0000721,-1,-1,-1,-1
1.71E+12,128,128,-1,-1,-1,-1,53.45374628,10.32094981,63.77469609,-605.0000721,-1,-1,-1,-1
1.71E+12,128,128,-1,-1,-1,-1,53.45584117,10.32074964,63.77659082,-605.0000721,-1,-1,-1,-1
1.71E+12,128,128,-1,-1,-1,-1,53.45794987,10.32053773,63.77848759,-605.0000721,-1,-1,-1,-1
1.71E+12,128,128,-1,-1,-1,-1,53.46007087,10.32031382,63.78038469,-605.0000721,-1,-1,-1,-1
1.71E+12,128,128,-1,-1,-1,-1,53.46220267,10.3200777,63.78228037,-605.0000721,-1,-1,-1,-1
1.71E+12,128,128,-1,-1,-1,-1,53.46434378,10.31982913,63.78417291,-605.0000721,-1,-1,-1,-1
1.71E+12,128,128,-1,-1,-1,-1,53.4664927,10.3195679,63.7860606,-605.0000721,-1,-1,-1,-1
1.71E+12,128,128,-1,-1,-1,-1,53.46864794,10.31929377,63.7879417,-605.0000721,-1,-1,-1,-1
1.71E+12,128,128,-1,-1,-1,-1,53.470808,10.31900655,63.78981455,-605.0000721,-1,-1,-1,-1
1.71E+12,128,128,-1,-1,-1,-1,53.47297139,10.31870605,63.79167744,-605.0000721,-1,-1,-1,-1
1.71E+12,128,128,-1,-1,-1,-1,53.47513657,10.31839207,63.79352864,-605.0000721,-1,-1,-1,-1
1.71E+12,128,128,-1,-1,-1,-1,53.477302,10.31806444,63.79536644,-605.0000721,-1,-1,-1,-1
1.71E+12,128,128,-1,-1,-1,-1,53.47946621,10.317723,63.7971892,-605.0000721,-1,-1,-1,-1
1.71E+12,128,128,-1,-1,-1,-1,53.4816277,10.31736763,63.79899533,-605.0000721,-1,-1,-1,-1
1.71E+12,128,128,-1,-1,-1,-1,53.48378501,10.31699821,63.80078322,-605.0000721,-1,-1,-1,-1
1.71E+12,128,128,-1,-1,-1,-1,53.48593671,10.31661465,63.80255136,-605.0000721,-1,-1,-1,-1
1.71E+12,128,128,-1,-1,-1,-1,53.48808139,10.31621688,63.80429827,-605.0000721,-1,-1,-1,-1
1.71E+12,128,128,-1,-1,-1,-1,53.49021767,10.31580483,63.8060225,-605.0000721,-1,-1,-1,-1
1.71E+12,128,128,-1,-1,-1,-1,53.4923442,10.31537846,63.80772267,-605.0000721,-1,-1,-1,-1
1.71E+12,128,128,-1,-1,-1,-1,53.49445969,10.31493779,63.80939748,-605.0000721,-1,-1,-1,-1
1.71E+12,128,128,-1,-1,-1,-1,53.49656284,10.31448284,63.81104567,-605.0000721,-1,-1,-1,-1
1.71E+12,128,128,-1,-1,-1,-1,53.49865238,10.31401366,63.81266604,-605.0000721,-1,-1,-1,-1
1.71E+12,128,128,-1,-1,-1,-1,53.5007271,10.31353034,63.81425744,-605.0000721,-1,-1,-1,-1
1.71E+12,128,128,-1,-1,-1,-1,53.50278585,10.31303294,63.8158188,-605.0000721,-1,-1,-1,-1
1.71E+12,128,128,-1,-1,-1,-1,53.50482756,10.31252157,63.81734912,-605.0000721,-1,-1,-1,-1
1.71E+12,128,128,-1,-1,-1,-1,53.50685121,10.31199629,63.8188475,-605.0000721,-1,-1,-1,-1
1.71E+12,128,128,-1,-1,-1,-1,53.50885592,10.31145721,63.82031313,-605.0000721,-1,-1,-1,-1
1.71E+12,128,128,-1,-1,-1,-1,53.51084087,10.31090443,63.8217453,-605.0000721,-1,-1,-1,-1
1.71E+12,128,128,-1,-1,-1,-1,53.51280533,10.31033808,63.82314342,-605.0000721,-1,-1,-1,-1
1.71E+12,128,128,-1,-1,-1,-1,53.51474863,10.30975832,63.82450695,-605.0000721,-1,-1,-1,-1
1.71E+12,128,128,-1,-1,-1,-1,53.51667011,10.30916534,63.82583544,-605.0000721,-1,-1,-1,-1
1.71E+12,128,128,-1,-1,-1,-1,53.51856918,10.30855933,63.82712851,-605.0000721,-1,-1,-1,-1
1.71E+12,128,128,-1,-1,-1,-1,53.52044534,10.30794054,63.82838587,-605.0000721,-1,-1,-1,-1
1.71E+12,128,128,-1,-1,-1,-1,53.52229815,10.30730919,63.82960734,-605.0000721,-1,-1,-1,-1
1.71E+12,128,128,-1,-1,-1,-1,53.52412726,10.30666555,63.83079281,-605.0000721,-1,-1,-1,-1
1.71E+12,128,128,-1,-1,-1,-1,53.52593241,10.30600989,63.8319423,-605.0000721,-1,-1,-1,-1
1.71E+12,128,128,-1,-1,-1,-1,53.52771335,10.30534253,63.83305589,-605.0000721,-1,-1,-1,-1
1.71E+12,128,128,-1,-1,-1,-1,53.52946991,10.3046638,63.83413372,-605.0000721,-1,-1,-1,-1
1.71E+12,128,128,-1,-1,-1,-1,53.53120197,10.30397404,63.83517601,-605.0000721,-1,-1,-1,-1
1.71E+12,128,128,-1,-1,-1,-1,53.53290946,10.30327359,63.83618305,-605.0000721,-1,-1,-1,-1
1.71E+12,128,128,-1,-1,-1,-1,53.5345924,10.30256279,63.83715519,-605.0000721,-1,-1,-1,-1
1.71E+12,128,128,-1,-1,-1,-1,53.53625087,10.30184198,63.83809285,-605.0000721,-1,-1,-1,-1
1.71E+12,128,128,-1,-1,-1,-1,53.53788504,10.30111155,63.83899658,-605.0000721,-1,-1,-1,-1
1.71E+12,128,128,-1,-1,-1,-1,53.53949519,10.30037186,63.83986705,-605.0000721,-1,-1,-1,-1
1.71E+12,128,128,-1,-1,-1,-1,53.54108172,10.2996233,63.84070502,-605.0000721,-1,-1,-1,-1
1.71E+12,128,128,-1,-1,-1,-1,53.54264511,10.29886625,63.84151136,-605.0000721,-1,-1,-1,-1
1.71E+12,128,128,-1,-1,-1,-1,53.54418589,10.29810118,63.84228707,-605.0000721,-1,-1,-1,-1
1.71E+12,128,128,-1,-1,-1,-1,53.54570462,10.29732857,63.84303319,-605.0000721,-1,-1,-1,-1
1.71E+12,128,128,-1,-1,-1,-1,53.54720186,10.29654891,63.84375076,-605.0000721,-1,-1,-1,-1
1.71E+12,128,128,-1,-1,-1,-1,53.54867816,10.29576271,63.84444086,-605.0000721,-1,-1,-1,-1
1.71E+12,128,128,-1,-1,-1,-1,53.55013412,10.29497047,63.84510459,-605.0000721,-1,-1,-1,-1
1.71E+12,128,128,-1,-1,-1,-1,53.55157034,10.2941727,63.84574304,-605.0000721,-1,-1,-1,-1
1.71E+12,128,128,-1,-1,-1,-1,53.55298744,10.29336991,63.84635735,-605.0000721,-1,-1,-1,-1
1.71E+12,128,128,-1,-1,-1,-1,53.55438604,10.29256261,63.84694866,-605.0000721,-1,-1,-1,-1
1.71E+12,128,128,-1,-1,-1,-1,53.55576679,10.29175134,63.84751813,-605.0000721,-1,-1,-1,-1
1.71E+12,128,128,-1,-1,-1,-1,53.55713034,10.29093663,63.84806697,-605.0000721,-1,-1,-1,-1
1.71E+12,128,128,-1,-1,-1,-1,53.55847737,10.29011901,63.84859638,-605.0000721,-1,-1,-1,-1
1.71E+12,128,128,-1,-1,-1,-1,53.55980859,10.28929896,63.84910756,-605.0000721,-1,-1,-1,-1
1.71E+12,128,128,-1,-1,-1,-1,53.56112472,10.28847694,63.84960166,-605.0000721,-1,-1,-1,-1
1.71E+12,128,128,-1,-1,-1,-1,53.5624265,10.28765336,63.85007986,-605.0000721,-1,-1,-1,-1
1.71E+12,128,128,-1,-1,-1,-1,53.56371471,10.28682866,63.85054337,-605.0000721,-1,-1,-1,-1
1.71E+12,128,128,-1,-1,-1,-1,53.56499014,10.28600326,63.8509934,-605.0000721,-1,-1,-1,-1
1.71E+12,128,128,-1,-1,-1,-1,53.56625357,10.28517753,63.8514311,-605.0000721,-1,-1,-1,-1
1.71E+12,128,128,-1,-1,-1,-1,53.56750577,10.28435186,63.85185763,-605.0000721,-1,-1,-1,-1
1.71E+12,128,128,-1,-1,-1,-1,53.5687475,10.28352661,63.85227411,-605.0000721,-1,-1,-1,-1
1.71E+12,128,128,-1,-1,-1,-1,53.56997948,10.28270215,63.85268163,-605.0000721,-1,-1,-1,-1
1.71E+12,128,128,-1,-1,-1,-1,53.57120241,10.28187884,63.85308125,-605.0000721,-1,-1,-1,-1
1.71E+12,128,128,-1,-1,-1,-1,53.57241698,10.28105702,63.85347399,-605.0000721,-1,-1,-1,-1
1.71E+12,128,128,-1,-1,-1,-1,53.57362381,10.28023703,63.85386085,-605.0000721,-1,-1,-1,-1
1.71E+12,128,128,-1,-1,-1,-1,53.57482355,10.2794192,63.85424275,-605.0000721,-1,-1,-1,-1
1.71E+12,128,128,-1,-1,-1,-1,53.57601676,10.27860382,63.85462059,-605.0000721,-1,-1,-1,-1
1.71E+12,128,128,-1,-1,-1,-1,53.57720404,10.27779119,63.85499523,-605.0000721,-1,-1,-1,-1
1.71E+12,128,128,-1,-1,-1,-1,53.57838591,10.27698161,63.85536752,-605.0000721,-1,-1,-1,-1
1.71E+12,128,128,-1,-1,-1,-1,53.5795629,10.27617535,63.85573826,-605.0000721,-1,-1,-1,-1
1.71E+12,128,128,-1,-1,-1,-1,53.58073551,10.27537268,63.85610819,-605.0000721,-1,-1,-1,-1
1.71E+12,128,128,-1,-1,-1,-1,53.5819042,10.27457384,63.85647803,-605.0000721,-1,-1,-1,-1
1.71E+12,128,128,-1,-1,-1,-1,53.58306943,10.27377902,63.85684846,-605.0000721,-1,-1,-1,-1
1.71E+12,128,128,-1,-1,-1,-1,53.58423165,10.27298844,63.85722009,-605.0000721,-1,-1,-1,-1
1.71E+12,128,128,-1,-1,-1,-1,53.58539128,10.27220226,63.85759353,-605.0000721,-1,-1,-1,-1
1.71E+12,128,128,-1,-1,-1,-1,53.58654874,10.27142065,63.85796939,-605.0000721,-1,-1,-1,-1
1.71E+12,128,128,-1,-1,-1,-1,53.58770438,10.27064381,63.85834819,-605.0000721,-1,-1,-1,-1
1.71E+12,128,128,-1,-1,-1,-1,53.5888585,10.2698719,63.8587304,-605.0000721,-1,-1,-1,-1
1.71E+12,128,128,-1,-1,-1,-1,53.59001135,10.26910506,63.85911642,-605.0000721,-1,-1,-1,-1
1.71E+12,128,128,-1,-1,-1,-1,53.59116315,10.26834339,63.85950655,-605.0000721,-1,-1,-1,-1
1.71E+12,128,128,-1,-1,-1,-1,53.5923141,10.26758694,63.85990104,-605.0000721,-1,-1,-1,-1
1.71E+12,128,128,-1,-1,-1,-1,53.59346438,10.26683572,63.8603001,-605.0000721,-1,-1,-1,-1
1.71E+12,128,128,-1,-1,-1,-1,53.59461415,10.26608976,63.86070391,-605.0000721,-1,-1,-1,-1
1.71E+12,128,128,-1,-1,-1,-1,53.59576357,10.26534907,63.86111263,-605.0000721,-1,-1,-1,-1
1.71E+12,128,128,-1,-1,-1,-1,53.5969127,10.26461364,63.86152634,-605.0000721,-1,-1,-1,-1
1.71E+12,128,128,-1,-1,-1,-1,53.5980616,10.26388345,63.86194506,-605.0000721,-1,-1,-1,-1
1.71E+12,128,128,-1,-1,-1,-1,53.59921028,10.26315842,63.8623687,-605.0000721,-1,-1,-1,-1
1.71E+12,128,128,-1,-1,-1,-1,53.6003587,10.26243844,63.86279714,-605.0000721,-1,-1,-1,-1
1.71E+12,128,128,-1,-1,-1,-1,53.60150677,10.26172339,63.86323017,-605.0000721,-1,-1,-1,-1
1.71E+12,128,128,-1,-1,-1,-1,53.60265445,10.2610131,63.86366756,-605.0000721,-1,-1,-1,-1
1.71E+12,128,128,-1,-1,-1,-1,53.60380167,10.2603074,63.86410907,-605.0000721,-1,-1,-1,-1
1.71E+12,128,128,-1,-1,-1,-1,53.60494834,10.25960609,63.86455444,-605.0000721,-1,-1,-1,-1
1.71E+12,128,128,-1,-1,-1,-1,53.60609436,10.25890899,63.86500335,-605.0000721,-1,-1,-1,-1
1.71E+12,128,128,-1,-1,-1,-1,53.60723957,10.2582159,63.86545547,-605.0000721,-1,-1,-1,-1
1.71E+12,128,128,-1,-1,-1,-1,53.60838378,10.25752658,63.86591037,-605.0000721,-1,-1,-1,-1
1.71E+12,128,128,-1,-1,-1,-1,53.6095268,10.25684081,63.8663676,-605.0000721,-1,-1,-1,-1
1.71E+12,128,128,-1,-1,-1,-1,53.61066839,10.2561583,63.86682668,-605.0000721,-1,-1,-1,-1
1.71E+12,128,128,-1,-1,-1,-1,53.61180834,10.25547876,63.8672871,-605.0000721,-1,-1,-1,-1
1.71E+12,128,128,-1,-1,-1,-1,53.61294646,10.25480189,63.86774835,-605.0000721,-1,-1,-1,-1
1.71E+12,128,128,-1,-1,-1,-1,53.61408255,10.25412736,63.86820992,-605.0000721,-1,-1,-1,-1
1.71E+12,128,128,-1,-1,-1,-1,53.61521642,10.25345485,63.86867127,-605.0000721,-1,-1,-1,-1
1.71E+12,128,128,-1,-1,-1,-1,53.61634782,10.25278402,63.86913184,-605.0000721,-1,-1,-1,-1
1.71E+12,128,128,-1,-1,-1,-1,53.61747647,10.25211454,63.86959101,-605.0000721,-1,-1,-1,-1
1.71E+12,128,128,-1,-1,-1,-1,53.61860205,10.25144607,63.87004812,-605.0000721,-1,-1,-1,-1
1.71E+12,128,128,-1,-1,-1,-1,53.61972421,10.25077825,63.87050246,-605.0000721,-1,-1,-1,-1
1.71E+12,128,128,-1,-1,-1,-1,53.6208426,10.25011069,63.87095329,-605.0000721,-1,-1,-1,-1
1.71E+12,128,128,-1,-1,-1,-1,53.62195688,10.249443,63.87139987,-605.0000721,-1,-1,-1,-1
1.71E+12,128,128,-1,-1,-1,-1,53.6230667,10.2487748,63.87184151,-605.0000721,-1,-1,-1,-1
1.71E+12,128,128,-1,-1,-1,-1,53.62417174,10.24810576,63.87227749,-605.0000721,-1,-1,-1,-1
1.71E+12,128,128,-1,-1,-1,-1,53.62527159,10.24743553,63.87270713,-605.0000721,-1,-1,-1,-1
1.71E+12,128,128,-1,-1,-1,-1,53.62636586,10.24676383,63.87312969,-605.0000721,-1,-1,-1,-1
1.71E+12,128,128,-1,-1,-1,-1,53.62745409,10.24609034,63.87354443,-605.0000721,-1,-1,-1,-1
1.71E+12,128,128,-1,-1,-1,-1,53.62853583,10.24541477,63.8739506,-605.0000721,-1,-1,-1,-1
1.71E+12,128,128,-1,-1,-1,-1,53.62961058,10.24473681,63.87434739,-605.0000721,-1,-1,-1,-1
1.71E+12,128,128,-1,-1,-1,-1,53.63067789,10.24405615,63.87473404,-605.0000721,-1,-1,-1,-1
1.71E+12,128,128,-1,-1,-1,-1,53.63173732,10.2433725,63.87510982,-605.0000721,-1,-1,-1,-1
1.71E+12,128,128,-1,-1,-1,-1,53.63278847,10.24268555,63.87547402,-605.0000721,-1,-1,-1,-1
1.71E+12,128,128,-1,-1,-1,-1,53.63383093,10.24199502,63.87582595,-605.0000721,-1,-1,-1,-1
1.71E+12,128,128,-1,-1,-1,-1,53.63486427,10.24130063,63.8761649,-605.0000721,-1,-1,-1,-1
1.71E+12,128,128,-1,-1,-1,-1,53.63588804,10.24060213,63.87649017,-605.0000721,-1,-1,-1,-1
1.71E+12,128,128,-1,-1,-1,-1,53.63690176,10.2398993,63.87680106,-605.0000721,-1,-1,-1,-1
1.71E+12,128,128,-1,-1,-1,-1,53.63790489,10.23919192,63.87709681,-605.0000721,-1,-1,-1,-1
1.71E+12,128,128,-1,-1,-1,-1,53.63889691,10.23847977,63.87737668,-605.0000721,-1,-1,-1,-1
1.71E+12,128,128,-1,-1,-1,-1,53.63987733,10.23776264,63.87763997,-605.0000721,-1,-1,-1,-1
1.71E+12,128,128,-1,-1,-1,-1,53.64084567,10.23704029,63.87788597,-605.0000721,-1,-1,-1,-1
1.71E+12,128,128,-1,-1,-1,-1,53.64180151,10.2363124,63.8781139,-605.0000721,-1,-1,-1,-1
1.71E+12,128,128,-1,-1,-1,-1,53.64274442,10.23557847,63.87832289,-605.0000721,-1,-1,-1,-1
1.71E+12,128,128,-1,-1,-1,-1,53.64367406,10.2348378,63.87851186,-605.0000721,-1,-1,-1,-1
1.71E+12,128,128,-1,-1,-1,-1,53.64459016,10.2340894,63.87867956,-605.0000721,-1,-1,-1,-1
1.71E+12,128,128,-1,-1,-1,-1,53.64549259,10.23333207,63.87882466,-605.0000721,-1,-1,-1,-1
1.71E+12,128,128,-1,-1,-1,-1,53.64638129,10.23256453,63.87894582,-605.0000721,-1,-1,-1,-1
1.71E+12,128,128,-1,-1,-1,-1,53.64725642,10.23178537,63.87904179,-605.0000721,-1,-1,-1,-1
1.71E+12,128,128,-1,-1,-1,-1,53.64811832,10.23099308,63.8791114,-605.0000721,-1,-1,-1,-1
1.71E+12,128,128,-1,-1,-1,-1,53.64896756,10.23018607,63.87915364,-605.0000721,-1,-1,-1,-1
1.71E+12,128,128,-1,-1,-1,-1,53.64980498,10.22936275,63.87916773,-605.0000721,-1,-1,-1,-1
1.71E+12,128,128,-1,-1,-1,-1,53.65063163,10.22852162,63.87915325,-605.0000721,-1,-1,-1,-1
1.71E+12,128,128,-1,-1,-1,-1,53.65144876,10.22766146,63.87911022,-605.0000721,-1,-1,-1,-1
1.71E+12,128,128,-1,-1,-1,-1,53.65225781,10.22678134,63.87903914,-605.0000721,-1,-1,-1,-1
1.71E+12,128,128,-1,-1,-1,-1,53.65306032,10.22588067,63.878941,-605.0000721,-1,-1,-1,-1
1.71E+12,128,128,-1,-1,-1,-1,53.65385768,10.2249597,63.87881738,-605.0000721,-1,-1,-1,-1
1.71E+12,128,128,-1,-1,-1,-1,53.65465091,10.22401975,63.87867066,-605.0000721,-1,-1,-1,-1
1.71E+12,128,128,-1,-1,-1,-1,53.65544047,10.22306352,63.87850399,-605.0000721,-1,-1,-1,-1
1.71E+12,128,128,-1,-1,-1,-1,53.65622599,10.22209542,63.87832141,-605.0000721,-1,-1,-1,-1
1.71E+12,128,128,-1,-1,-1,-1,53.65700662,10.22112081,63.87812742,-605.0000721,-1,-1,-1,-1
1.71E+12,128,128,-1,-1,-1,-1,53.65778135,10.22014516,63.87792651,-605.0000721,-1,-1,-1,-1
1.71E+12,128,128,-1,-1,-1,-1,53.65854902,10.21917368,63.8777227,-605.0000721,-1,-1,-1,-1
1.71E+12,128,128,-1,-1,-1,-1,53.65930833,10.21821107,63.8775194,-605.0000721,-1,-1,-1,-1
1.71E+12,128,128,-1,-1,-1,-1,53.6600579,10.21726146,63.87731936,-605.0000721,-1,-1,-1,-1
1.71E+12,128,128,-1,-1,-1,-1,53.66079619,10.21632844,63.87712463,-605.0000721,-1,-1,-1,-1
1.71E+12,128,128,-1,-1,-1,-1,53.66152137,10.21541544,63.8769368,-605.0000721,-1,-1,-1,-1
1.71E+12,128,128,-1,-1,-1,-1,53.66223143,10.21452576,63.87675719,-605.0000721,-1,-1,-1,-1
1.71E+12,128,128,-1,-1,-1,-1,53.6629244,10.21366247,63.87658687,-605.0000721,-1,-1,-1,-1
1.71E+12,128,128,-1,-1,-1,-1,53.66359829,10.21282836,63.87642665,-605.0000721,-1,-1,-1,-1
1.71E+12,128,128,-1,-1,-1,-1,53.66425112,10.21202601,63.87627713,-605.0000721,-1,-1,-1,-1
1.71E+12,128,128,-1,-1,-1,-1,53.66488102,10.2112578,63.87613882,-605.0000721,-1,-1,-1,-1
1.71E+12,128,128,-1,-1,-1,-1,53.66548634,10.21052597,63.87601231,-605.0000721,-1,-1,-1,-1
1.71E+12,128,128,-1,-1,-1,-1,53.66606566,10.20983262,63.87589828,-605.0000721,-1,-1,-1,-1
1.71E+12,128,128,-1,-1,-1,-1,53.6666179,10.20917977,63.87579767,-605.0000721,-1,-1,-1,-1
1.71E+12,128,128,-1,-1,-1,-1,53.66714228,10.20856945,63.87571173,-605.0000721,-1,-1,-1,-1
1.71E+12,128,128,-1,-1,-1,-1,53.66763823,10.20800375,63.87564198,-605.0000721,-1,-1,-1,-1
1.71E+12,128,128,-1,-1,-1,-1,53.66810515,10.20748494,63.8755901,-605.0000721,-1,-1,-1,-1
1.71E+12,128,128,-1,-1,-1,-1,53.66854242,10.20701538,63.87555781,-605.0000721,-1,-1,-1,-1
1.71E+12,128,128,-1,-1,-1,-1,53.6689493,10.20659756,63.87554686,-605.0000721,-1,-1,-1,-1
1.71E+12,128,128,-1,-1,-1,-1,53.66932492,10.20623406,63.87555898,-605.0000721,-1,-1,-1,-1
1.71E+12,128,128,-1,-1,-1,-1,53.66966828,10.20592765,63.87559593,-605.0000721,-1,-1,-1,-1
1.71E+12,128,128,-1,-1,-1,-1,53.66997833,10.20568117,63.8756595,-605.0000721,-1,-1,-1,-1
1.71E+12,128,128,-1,-1,-1,-1,53.67025395,10.2054976,63.87575155,-605.0000721,-1,-1,-1,-1
1.71E+12,128,128,-1,-1,-1,-1,53.67049398,10.20538,63.87587398,-605.0000721,-1,-1,-1,-1
1.71E+12,128,128,-1,-1,-1,-1,53.67069718,10.20533151,63.87602869,-605.0000721,-1,-1,-1,-1
1.71E+12,128,128,-1,-1,-1,-1,53.67086225,10.20535531,63.87621756,-605.0000721,-1,-1,-1,-1
1.71E+12,128,128,-1,-1,-1,-1,53.67098782,10.20545458,63.8764424,-605.0000721,-1,-1,-1,-1
1.71E+12,128,128,-1,-1,-1,-1,53.67107244,10.20563249,63.87670493,-605.0000721,-1,-1,-1,-1
1.71E+12,128,128,-1,-1,-1,-1,53.67111463,10.20589217,63.8770068,-605.0000721,-1,-1,-1,-1
1.71E+12,128,128,-1,-1,-1,-1,53.67111288,10.20623667,63.87734955,-605.0000721,-1,-1,-1,-1
1.71E+12,128,128,-1,-1,-1,-1,53.6710657,10.20666897,63.87773467,-605.0000721,-1,-1,-1,-1
1.71E+12,128,128,-1,-1,-1,-1,53.67097163,10.20719194,63.87816357,-605.0000721,-1,-1,-1,-1
1.71E+12,128,128,-1,-1,-1,-1,53.67082918,10.20780837,63.87863755,-605.0000721,-1,-1,-1,-1
1.71E+12,128,128,-1,-1,-1,-1,53.67063691,10.20852094,63.87915785,-605.0000721,-1,-1,-1,-1
1.71E+12,128,128,-1,-1,-1,-1,53.67039334,10.20933221,63.87972555,-605.0000721,-1,-1,-1,-1
1.71E+12,128,128,-1,-1,-1,-1,53.67009699,10.21024463,63.88034162,-605.0000721,-1,-1,-1,-1
1.71E+12,128,128,-1,-1,-1,-1,53.6697464,10.21126045,63.88100685,-605.0000721,-1,-1,-1,-1
1.71E+12,128,128,-1,-1,-1,-1,53.66934013,10.21238176,63.88172189,-605.0000721,-1,-1,-1,-1
1.71E+12,128,128,-1,-1,-1,-1,53.66887681,10.21361043,63.88248724,-605.0000721,-1,-1,-1,-1
1.71E+12,128,128,-1,-1,-1,-1,53.66835519,10.21494805,63.88330324,-605.0000721,-1,-1,-1,-1
1.71E+12,128,128,-1,-1,-1,-1,53.6677741,10.21639601,63.8841701,-605.0000721,-1,-1,-1,-1
1.71E+12,128,128,-1,-1,-1,-1,53.66713243,10.21795539,63.88508782,-605.0000721,-1,-1,-1,-1
1.71E+12,128,128,-1,-1,-1,-1,53.66642916,10.21962704,63.8860562,-605.0000721,-1,-1,-1,-1
1.71E+12,128,128,-1,-1,-1,-1,53.6656633,10.22141154,63.88707484,-605.0000721,-1,-1,-1,-1
1.71E+12,128,128,-1,-1,-1,-1,53.66483395,10.22330919,63.88814314,-605.0000721,-1,-1,-1,-1
1.71E+12,128,128,-1,-1,-1,-1,53.66394027,10.22532003,63.88926029,-605.0000721,-1,-1,-1,-1
1.71E+12,128,128,-1,-1,-1,-1,53.66298155,10.22744375,63.8904253,-605.0000721,-1,-1,-1,-1
1.71E+12,128,128,-1,-1,-1,-1,53.6619572,10.22967977,63.89163698,-605.0000721,-1,-1,-1,-1
1.71E+12,128,128,-1,-1,-1,-1,53.66086682,10.23202719,63.89289401,-605.0000721,-1,-1,-1,-1
1.71E+12,128,128,-1,-1,-1,-1,53.65971014,10.23448477,63.89419491,-605.0000721,-1,-1,-1,-1
1.71E+12,128,128,-1,-1,-1,-1,53.65848706,10.23705096,63.89553802,-605.0000721,-1,-1,-1,-1
1.71E+12,128,128,-1,-1,-1,-1,53.65719762,10.2397239,63.89692152,-605.0000721,-1,-1,-1,-1
1.71E+12,128,128,-1,-1,-1,-1,53.65584198,10.24250136,63.89834334,-605.0000721,-1,-1,-1,-1
1.71E+12,128,128,-1,-1,-1,-1,53.65442048,10.24538077,63.89980125,-605.0000721,-1,-1,-1,-1
1.71E+12,128,128,-1,-1,-1,-1,53.6529336,10.24835921,63.90129281,-605.0000721,-1,-1,-1,-1
1.71E+12,128,128,-1,-1,-1,-1,53.651382,10.25143341,63.90281541,-605.0000721,-1,-1,-1,-1
1.71E+12,128,128,-1,-1,-1,-1,53.64976651,10.25459979,63.9043663,-605.0000721,-1,-1,-1,-1
1.71E+12,128,128,-1,-1,-1,-1,53.64808814,10.25785445,63.90594259,-605.0000721,-1,-1,-1,-1
1.71E+12,128,128,-1,-1,-1,-1,53.64634806,10.26119317,63.90754123,-605.0000721,-1,-1,-1,-1
1.71E+12,128,128,-1,-1,-1,-1,53.64454765,10.26461144,63.90915909,-605.0000721,-1,-1,-1,-1
1.71E+12,128,128,-1,-1,-1,-1,53.64268844,10.26810444,63.91079289,-605.0000721,-1,-1,-1,-1
1.71E+12,128,128,-1,-1,-1,-1,53.64077221,10.27166705,63.91243926,-605.0000721,-1,-1,-1,-1
1.71E+12,128,128,-1,-1,-1,-1,53.63880091,10.27529387,63.91409478,-605.0000721,-1,-1,-1,-1
1.71E+12,128,128,-1,-1,-1,-1,53.63677668,10.27897924,63.91575593,-605.0000721,-1,-1,-1,-1
1.71E+12,128,128,-1,-1,-1,-1,53.63470185,10.28271724,63.91741908,-605.0000721,-1,-1,-1,-1
1.71E+12,128,128,-1,-1,-1,-1,53.63257894,10.28650166,63.91908061,-605.0000721,-1,-1,-1,-1
1.71E+12,128,128,-1,-1,-1,-1,53.6304107,10.29032611,63.92073682,-605.0000721,-1,-1,-1,-1
1.71E+12,128,128,-1,-1,-1,-1,53.62820005,10.29418397,63.92238402,-605.0000721,-1,-1,-1,-1
1.71E+12,128,128,-1,-1,-1,-1,53.62595009,10.29806841,63.9240185,-605.0000721,-1,-1,-1,-1
1.71E+12,128,128,-1,-1,-1,-1,53.62366409,10.30197244,63.92563653,-605.0000721,-1,-1,-1,-1
1.71E+12,128,128,-1,-1,-1,-1,53.62134549,10.30588889,63.92723438,-605.0000721,-1,-1,-1,-1
1.71E+12,128,128,-1,-1,-1,-1,53.61899788,10.30981042,63.9288083,-605.0000721,-1,-1,-1,-1
1.71E+12,128,128,-1,-1,-1,-1,53.61662501,10.31372957,63.93035458,-605.0000721,-1,-1,-1,-1
1.71E+12,128,128,-1,-1,-1,-1,53.61423085,10.31763874,63.93186959,-605.0000721,-1,-1,-1,-1
1.71E+12,128,128,-1,-1,-1,-1,53.61181949,10.32153029,63.93334978,-605.0000721,-1,-1,-1,-1
1.71E+12,128,128,-1,-1,-1,-1,53.60939517,10.32539652,63.93479169,-605.0000721,-1,-1,-1,-1
1.71E+12,128,128,-1,-1,-1,-1,53.60696221,10.32922972,63.93619194,-605.0000721,-1,-1,-1,-1
1.71E+12,128,128,-1,-1,-1,-1,53.60452505,10.33302219,63.93754724,-605.0000721,-1,-1,-1,-1
1.71E+12,128,128,-1,-1,-1,-1,53.60208816,10.33676622,63.93885439,-605.0000721,-1,-1,-1,-1
1.71E+12,128,128,-1,-1,-1,-1,53.59965607,10.34045419,63.94011026,-605.0000721,-1,-1,-1,-1
1.71E+12,128,128,-1,-1,-1,-1,53.59723339,10.34407847,63.94131186,-605.0000721,-1,-1,-1,-1
1.71E+12,128,128,-1,-1,-1,-1,53.59482482,10.34763152,63.94245634,-605.0000721,-1,-1,-1,-1
1.71E+12,128,128,-1,-1,-1,-1,53.59243516,10.35110589,63.94354105,-605.0000721,-1,-1,-1,-1
1.71E+12,128,128,-1,-1,-1,-1,53.59006927,10.35449424,63.9445635,-605.0000721,-1,-1,-1,-1
1.71E+12,128,128,-1,-1,-1,-1,53.58773206,10.35778938,63.94552144,-605.0000721,-1,-1,-1,-1
1.71E+12,128,128,-1,-1,-1,-1,53.58542846,10.36098433,63.94641279,-605.0000721,-1,-1,-1,-1
1.71E+12,128,128,-1,-1,-1,-1,53.58316338,10.36407228,63.94723566,-605.0000721,-1,-1,-1,-1
1.71E+12,128,128,-1,-1,-1,-1,53.58094174,10.36704665,63.94798839,-605.0000721,-1,-1,-1,-1
1.71E+12,128,128,-1,-1,-1,-1,53.57876844,10.36990105,63.94866949,-605.0000721,-1,-1,-1,-1
1.71E+12,128,128,-1,-1,-1,-1,53.5766484,10.37262932,63.94927772,-605.0000721,-1,-1,-1,-1
1.71E+12,128,128,-1,-1,-1,-1,53.57458653,10.3752256,63.94981213,-605.0000721,-1,-1,-1,-1
1.71E+12,128,128,-1,-1,-1,-1,53.57258771,10.37768432,63.95027203,-605.0000721,-1,-1,-1,-1
1.71E+12,128,128,-1,-1,-1,-1,53.57065676,10.38000027,63.95065703,-605.0000721,-1,-1,-1,-1
1.71E+12,128,128,-1,-1,-1,-1,53.56879844,10.38216855,63.95096699,-605.0000721,-1,-1,-1,-1
1.71E+12,128,128,-1,-1,-1,-1,53.56701738,10.3841846,63.95120198,-605.0000721,-1,-1,-1,-1
1.71E+12,128,128,-1,-1,-1,-1,53.56531803,10.38604423,63.95136226,-605.0000721,-1,-1,-1,-1
1.71E+12,128,128,-1,-1,-1,-1,53.56370467,10.38774366,63.95144833,-605.0000721,-1,-1,-1,-1
1.71E+12,128,128,-1,-1,-1,-1,53.56218142,10.38927948,63.95146089,-605.0000721,-1,-1,-1,-1
1.71E+12,128,128,-1,-1,-1,-1,53.56075225,10.39064861,63.95140086,-605.0000721,-1,-1,-1,-1
1.71E+12,128,128,-1,-1,-1,-1,53.55942106,10.39184837,63.95126944,-605.0000721,-1,-1,-1,-1
1.71E+12,128,128,-1,-1,-1,-1,53.55819167,10.39287647,63.95106814,-605.0000721,-1,-1,-1,-1
1.71E+12,128,128,-1,-1,-1,-1,53.55706775,10.39373104,63.95079879,-605.0000721,-1,-1,-1,-1
1.71E+12,128,128,-1,-1,-1,-1,53.55605286,10.39441068,63.95046354,-605.0000721,-1,-1,-1,-1
1.71E+12,128,128,-1,-1,-1,-1,53.55515037,10.39491444,63.95006481,-605.0000721,-1,-1,-1,-1
1.71E+12,128,128,-1,-1,-1,-1,53.55436352,10.39524181,63.94960533,-605.0000721,-1,-1,-1,-1
1.71E+12,128,128,-1,-1,-1,-1,53.55369535,10.3953927,63.94908805,-605.0000721,-1,-1,-1,-1
1.71E+12,128,128,-1,-1,-1,-1,53.5531487,10.39536745,63.94851615,-605.0000721,-1,-1,-1,-1
1.71E+12,128,128,-1,-1,-1,-1,53.55272622,10.39516684,63.94789306,-605.0000721,-1,-1,-1,-1
1.71E+12,128,128,-1,-1,-1,-1,53.55243031,10.39479215,63.94722246,-605.0000721,-1,-1,-1,-1
1.71E+12,128,128,-1,-1,-1,-1,53.5522632,10.39424512,63.94650832,-605.0000721,-1,-1,-1,-1
1.71E+12,128,128,-1,-1,-1,-1,53.55222687,10.39352796,63.94575482,-605.0000721,-1,-1,-1,-1
1.71E+12,128,128,-1,-1,-1,-1,53.55232306,10.39264332,63.94496638,-605.0000721,-1,-1,-1,-1
1.71E+12,128,128,-1,-1,-1,-1,53.55255328,10.39159427,63.94414755,-605.0000721,-1,-1,-1,-1
1.71E+12,128,128,-1,-1,-1,-1,53.55291875,10.3903843,63.94330305,-605.0000721,-1,-1,-1,-1
1.71E+12,128,128,-1,-1,-1,-1,53.55342047,10.38901735,63.94243781,-605.0000721,-1,-1,-1,-1
1.71E+12,128,128,-1,-1,-1,-1,53.55405917,10.38749774,63.94155691,-605.0000721,-1,-1,-1,-1
1.71E+12,128,128,-1,-1,-1,-1,53.55483537,10.3858302,63.94066557,-605.0000721,-1,-1,-1,-1
1.71E+12,128,128,-1,-1,-1,-1,53.55574938,10.38401978,63.93976917,-605.0000721,-1,-1,-1,-1
1.71E+12,128,128,-1,-1,-1,-1,53.5568013,10.38207191,63.93887321,-605.0000721,-1,-1,-1,-1
1.71E+12,128,128,-1,-1,-1,-1,53.557991,10.37999228,63.93798328,-605.0000721,-1,-1,-1,-1
1.71E+12,128,128,-1,-1,-1,-1,53.55931815,10.37778695,63.9371051,-605.0000721,-1,-1,-1,-1
1.71E+12,128,128,-1,-1,-1,-1,53.56078215,10.37546227,63.93624441,-605.0000721,-1,-1,-1,-1
1.71E+12,128,128,-1,-1,-1,-1,53.56238214,10.3730249,63.93540704,-605.0000721,-1,-1,-1,-1
1.71E+12,128,128,-1,-1,-1,-1,53.56411702,10.37048179,63.93459881,-605.0000721,-1,-1,-1,-1
1.71E+12,128,128,-1,-1,-1,-1,53.56598543,10.36784013,63.93382556,-605.0000721,-1,-1,-1,-1
1.71E+12,128,128,-1,-1,-1,-1,53.56798585,10.36510728,63.93309313,-605.0000721,-1,-1,-1,-1
1.71E+12,128,128,-1,-1,-1,-1,53.57011656,10.36229081,63.93240737,-605.0000721,-1,-1,-1,-1
1.71E+12,128,128,-1,-1,-1,-1,53.57237559,10.35939846,63.93177404,-605.0000721,-1,-1,-1,-1
1.71E+12,128,128,-1,-1,-1,-1,53.57476074,10.35643812,63.93119886,-605.0000721,-1,-1,-1,-1
1.71E+12,128,128,-1,-1,-1,-1,53.57726957,10.35341785,63.93068742,-605.0000721,-1,-1,-1,-1
1.71E+12,128,128,-1,-1,-1,-1,53.57989942,10.35034576,63.93024518,-605.0000721,-1,-1,-1,-1
1.71E+12,128,128,-1,-1,-1,-1,53.58264739,10.34723003,63.92987742,-605.0000721,-1,-1,-1,-1
1.71E+12,128,128,-1,-1,-1,-1,53.5855104,10.34407889,63.92958929,-605.0000721,-1,-1,-1,-1
1.71E+12,128,128,-1,-1,-1,-1,53.58848521,10.34090058,63.92938579,-605.0000721,-1,-1,-1,-1
1.71E+12,128,128,-1,-1,-1,-1,53.59156838,10.33770337,63.92927175,-605.0000721,-1,-1,-1,-1
1.71E+12,128,128,-1,-1,-1,-1,53.59475632,10.33449549,63.92925181,-605.0000721,-1,-1,-1,-1
1.71E+12,128,128,-1,-1,-1,-1,53.59804527,10.33128513,63.92933039,-605.0000721,-1,-1,-1,-1
1.71E+12,128,128,-1,-1,-1,-1,53.60143128,10.32808043,63.9295117,-605.0000721,-1,-1,-1,-1
1.71E+12,128,128,-1,-1,-1,-1,53.60491022,10.32488941,63.92979964,-605.0000721,-1,-1,-1,-1
1.71E+12,128,128,-1,-1,-1,-1,53.60847782,10.32171998,63.93019781,-605.0000721,-1,-1,-1,-1
1.71E+12,128,128,-1,-1,-1,-1,53.61212964,10.3185799,63.93070954,-605.0000721,-1,-1,-1,-1
1.71E+12,128,128,-1,-1,-1,-1,53.61586112,10.31547675,63.93133787,-605.0000721,-1,-1,-1,-1
1.71E+12,128,128,-1,-1,-1,-1,53.61966762,10.31241794,63.93208555,-605.0000721,-1,-1,-1,-1
1.71E+12,128,128,-1,-1,-1,-1,53.62354439,10.30941068,63.93295507,-605.0000721,-1,-1,-1,-1
1.71E+12,128,128,-1,-1,-1,-1,53.62748663,10.30646195,63.93394858,-605.0000721,-1,-1,-1,-1
1.71E+12,128,128,-1,-1,-1,-1,53.63148937,10.30357854,63.93506791,-605.0000721,-1,-1,-1,-1
1.71E+12,128,128,-1,-1,-1,-1,53.63554757,10.30076693,63.93631449,-605.0000721,-1,-1,-1,-1
1.71E+12,128,128,-1,-1,-1,-1,53.63965606,10.29803332,63.93768938,-605.0000721,-1,-1,-1,-1
1.71E+12,128,128,-1,-1,-1,-1,53.64380963,10.29538362,63.93919325,-605.0000721,-1,-1,-1,-1
1.71E+12,128,128,-1,-1,-1,-1,53.64800302,10.29282343,63.94082645,-605.0000721,-1,-1,-1,-1
1.71E+12,128,128,-1,-1,-1,-1,53.65223094,10.29035801,63.94258895,-605.0000721,-1,-1,-1,-1
1.71E+12,128,128,-1,-1,-1,-1,53.65648806,10.2879923,63.94448035,-605.0000721,-1,-1,-1,-1
1.71E+12,128,128,-1,-1,-1,-1,53.66076903,10.28573089,63.94649993,-605.0000721,-1,-1,-1,-1
1.71E+12,128,128,-1,-1,-1,-1,53.66506849,10.28357808,63.94864658,-605.0000721,-1,-1,-1,-1
1.71E+12,128,128,-1,-1,-1,-1,53.66938104,10.28153779,63.95091882,-605.0000721,-1,-1,-1,-1
1.71E+12,128,128,-1,-1,-1,-1,53.67370123,10.27961356,63.9533148,-605.0000721,-1,-1,-1,-1
1.71E+12,128,128,-1,-1,-1,-1,53.67802367,10.27780859,63.95583226,-605.0000721,-1,-1,-1,-1
1.71E+12,128,128,-1,-1,-1,-1,53.68234295,10.27612566,63.95846861,-605.0000721,-1,-1,-1,-1
1.71E+12,128,128,-1,-1,-1,-1,53.68665376,10.27456719,63.96122094,-605.0000721,-1,-1,-1,-1
1.71E+12,128,128,-1,-1,-1,-1,53.69095084,10.27313519,63.96408602,-605.0000721,-1,-1,-1,-1
1.71E+12,128,128,-1,-1,-1,-1,53.69522899,10.27183132,63.96706031,-605.0000721,-1,-1,-1,-1
1.71E+12,128,128,-1,-1,-1,-1,53.69948306,10.27065687,63.97013993,-605.0000721,-1,-1,-1,-1
1.71E+12,128,128,-1,-1,-1,-1,53.70370797,10.26961276,63.97332073,-605.0000721,-1,-1,-1,-1
1.71E+12,128,128,-1,-1,-1,-1,53.70789869,10.26869952,63.97659821,-605.0000721,-1,-1,-1,-1
1.71E+12,128,128,-1,-1,-1,-1,53.71205027,10.26791731,63.97996758,-605.0000721,-1,-1,-1,-1
1.71E+12,128,128,-1,-1,-1,-1,53.71615786,10.26726587,63.98342373,-605.0000721,-1,-1,-1,-1
1.71E+12,128,128,-1,-1,-1,-1,53.72021672,10.26674454,63.98696126,-605.0000721,-1,-1,-1,-1
1.71E+12,128,128,-1,-1,-1,-1,53.72422219,10.26635231,63.9905745,-605.0000721,-1,-1,-1,-1
1.71E+12,128,128,-1,-1,-1,-1,53.72816976,10.26608782,63.99425758,-605.0000721,-1,-1,-1,-1
1.71E+12,128,128,-1,-1,-1,-1,53.73205506,10.26594939,63.99800444,-605.0000721,-1,-1,-1,-1
1.71E+12,128,128,-1,-1,-1,-1,53.7358738,10.26593501,64.00180882,-605.0000721,-1,-1,-1,-1
1.71E+12,128,128,-1,-1,-1,-1,53.73962184,10.26604239,64.00566423,-605.0000721,-1,-1,-1,-1
1.71E+12,128,128,-1,-1,-1,-1,53.74329513,10.2662689,64.00956403,-605.0000721,-1,-1,-1,-1
1.71E+12,128,128,-1,-1,-1,-1,53.74688974,10.26661163,64.01350137,-605.0000721,-1,-1,-1,-1
1.71E+12,128,128,-1,-1,-1,-1,53.75040187,10.26706739,64.01746926,-605.0000721,-1,-1,-1,-1
1.71E+12,128,128,-1,-1,-1,-1,53.75382786,10.26763276,64.02146062,-605.0000721,-1,-1,-1,-1
1.71E+12,128,128,-1,-1,-1,-1,53.75716421,10.26830407,64.02546828,-605.0000721,-1,-1,-1,-1
1.71E+12,128,128,-1,-1,-1,-1,53.76040759,10.26907745,64.02948504,-605.0000721,-1,-1,-1,-1
1.71E+12,128,128,-1,-1,-1,-1,53.76355483,10.26994885,64.03350368,-605.0000721,-1,-1,-1,-1
1.71E+12,128,128,-1,-1,-1,-1,53.7666029,10.27091404,64.03751694,-605.0000721,-1,-1,-1,-1
1.71E+12,128,128,-1,-1,-1,-1,53.76954893,10.27196865,64.04151759,-605.0000721,-1,-1,-1,-1
1.71E+12,128,128,-1,-1,-1,-1,53.77239012,10.27310828,64.04549841,-605.0000721,-1,-1,-1,-1
1.71E+12,128,128,-1,-1,-1,-1,53.77512379,10.27432856,64.04945235,-605.0000721,-1,-1,-1,-1
1.71E+12,128,128,-1,-1,-1,-1,53.77774735,10.27562526,64.05337261,-605.0000721,-1,-1,-1,-1
1.71E+12,128,128,-1,-1,-1,-1,53.78025825,10.27699434,64.05725259,-605.0000721,-1,-1,-1,-1
1.71E+12,128,128,-1,-1,-1,-1,53.78265403,10.27843191,64.06108594,-605.0000721,-1,-1,-1,-1
1.71E+12,128,128,-1,-1,-1,-1,53.78493224,10.27993413,64.06486638,-605.0000721,-1,-1,-1,-1
1.71E+12,128,128,-1,-1,-1,-1,53.78709046,10.28149726,64.06858772,-605.0000721,-1,-1,-1,-1
1.71E+12,128,128,-1,-1,-1,-1,53.7891262,10.28311769,64.07224389,-605.0000721,-1,-1,-1,-1
1.71E+12,128,128,-1,-1,-1,-1,53.79103691,10.28479189,64.0758288,-605.0000721,-1,-1,-1,-1
1.71E+12,128,128,-1,-1,-1,-1,53.79281994,10.2865164,64.07933634,-605.0000721,-1,-1,-1,-1
1.71E+12,128,128,-1,-1,-1,-1,53.79447259,10.2882877,64.08276029,-605.0000721,-1,-1,-1,-1
1.71E+12,128,128,-1,-1,-1,-1,53.79599213,10.29010208,64.08609421,-605.0000721,-1,-1,-1,-1
1.71E+12,128,128,-1,-1,-1,-1,53.79737582,10.29195562,64.08933144,-605.0000721,-1,-1,-1,-1
1.71E+12,128,128,-1,-1,-1,-1,53.79862104,10.29384411,64.09246515,-605.0000721,-1,-1,-1,-1
1.71E+12,128,128,-1,-1,-1,-1,53.79972551,10.29576267,64.09548817,-605.0000721,-1,-1,-1,-1
1.71E+12,128,128,-1,-1,-1,-1,53.8006875,10.29770543,64.09839293,-605.0000721,-1,-1,-1,-1
1.71E+12,128,128,-1,-1,-1,-1,53.80150602,10.29966537,64.10117139,-605.0000721,-1,-1,-1,-1
1.71E+12,128,128,-1,-1,-1,-1,53.80218104,10.301634,64.10381504,-605.0000721,-1,-1,-1,-1
1.71E+12,128,128,-1,-1,-1,-1,53.80271308,10.30360218,64.10631526,-605.0000721,-1,-1,-1,-1
1.71E+12,128,128,-1,-1,-1,-1,53.80310299,10.30556088,64.10866387,-605.0000721,-1,-1,-1,-1
1.71E+12,128,128,-1,-1,-1,-1,53.80335194,10.30750156,64.1108535,-605.0000721,-1,-1,-1,-1
1.71E+12,128,128,-1,-1,-1,-1,53.80346136,10.30941641,64.11287777,-605.0000721,-1,-1,-1,-1
1.71E+12,128,128,-1,-1,-1,-1,53.80343296,10.31129843,64.1147314,-605.0000721,-1,-1,-1,-1
1.71E+12,128,128,-1,-1,-1,-1,53.80326879,10.31314141,64.11641021,-605.0000721,-1,-1,-1,-1
1.71E+12,128,128,-1,-1,-1,-1,53.8029713,10.31493959,64.11791089,-605.0000721,-1,-1,-1,-1
1.71E+12,128,128,-1,-1,-1,-1,53.80254323,10.31668758,64.11923081,-605.0000721,-1,-1,-1,-1
1.71E+12,128,128,-1,-1,-1,-1,53.80198745,10.31838054,64.120368,-605.0000721,-1,-1,-1,-1
1.71E+12,128,128,-1,-1,-1,-1,53.80130695,10.32001417,64.12132112,-605.0000721,-1,-1,-1,-1
1.71E+12,128,128,-1,-1,-1,-1,53.80050483,10.32158465,64.12208949,-605.0000721,-1,-1,-1,-1
1.71E+12,128,128,-1,-1,-1,-1,53.79958421,10.32308868,64.1226729,-605.0000721,-1,-1,-1,-1
1.71E+12,128,128,-1,-1,-1,-1,53.79854814,10.32452334,64.12307148,-605.0000721,-1,-1,-1,-1
1.71E+12,128,128,-1,-1,-1,-1,53.79739956,10.32588611,64.12328567,-605.0000721,-1,-1,-1,-1
1.71E+12,128,128,-1,-1,-1,-1,53.79614123,10.32717482,64.12331605,-605.0000721,-1,-1,-1,-1
1.71E+12,128,128,-1,-1,-1,-1,53.79477574,10.32838755,64.12316329,-605.0000721,-1,-1,-1,-1
1.71E+12,128,128,-1,-1,-1,-1,53.79330557,10.32952261,64.12282819,-605.0000721,-1,-1,-1,-1
1.71E+12,128,128,-1,-1,-1,-1,53.79173334,10.3305784,64.12231174,-605.0000721,-1,-1,-1,-1
1.71E+12,128,128,-1,-1,-1,-1,53.79006181,10.33155345,64.12161525,-605.0000721,-1,-1,-1,-1
1.71E+12,128,128,-1,-1,-1,-1,53.78829399,10.33244642,64.12074041,-605.0000721,-1,-1,-1,-1
1.71E+12,128,128,-1,-1,-1,-1,53.78643316,10.33325608,64.11968923,-605.0000721,-1,-1,-1,-1
1.71E+12,128,128,-1,-1,-1,-1,53.78448278,10.33398128,64.11846407,-605.0000721,-1,-1,-1,-1
1.71E+12,128,128,-1,-1,-1,-1,53.78244655,10.33462098,64.11706753,-605.0000721,-1,-1,-1,-1
1.71E+12,128,128,-1,-1,-1,-1,53.78032827,10.33517423,64.1155025,-605.0000721,-1,-1,-1,-1
1.71E+12,128,128,-1,-1,-1,-1,53.77813193,10.33564016,64.1137721,-605.0000721,-1,-1,-1,-1
1.71E+12,128,128,-1,-1,-1,-1,53.77586168,10.33601803,64.11187971,-605.0000721,-1,-1,-1,-1
1.71E+12,128,128,-1,-1,-1,-1,53.77352182,10.33630717,64.10982899,-605.0000721,-1,-1,-1,-1
1.71E+12,128,128,-1,-1,-1,-1,53.77111681,10.33650708,64.10762389,-605.0000721,-1,-1,-1,-1
1.71E+12,128,128,-1,-1,-1,-1,53.76865122,10.33661743,64.10526865,-605.0000721,-1,-1,-1,-1
1.71E+12,128,128,-1,-1,-1,-1,53.76612979,10.33663802,64.10276781,-605.0000721,-1,-1,-1,-1
1.71E+12,128,128,-1,-1,-1,-1,53.76355735,10.33656883,64.10012618,-605.0000721,-1,-1,-1,-1
1.71E+12,128,128,-1,-1,-1,-1,53.76093881,10.33641001,64.09734882,-605.0000721,-1,-1,-1,-1
1.71E+12,128,128,-1,-1,-1,-1,53.75827916,10.33616186,64.09444102,-605.0000721,-1,-1,-1,-1
1.71E+12,128,128,-1,-1,-1,-1,53.75558343,10.33582484,64.09140827,-605.0000721,-1,-1,-1,-1
1.71E+12,128,128,-1,-1,-1,-1,53.75285671,10.33539953,64.08825624,-605.0000721,-1,-1,-1,-1
1.71E+12,128,128,-1,-1,-1,-1,53.75010412,10.33488666,64.08499077,-605.0000721,-1,-1,-1,-1
1.71E+12,128,128,-1,-1,-1,-1,53.74733083,10.33428707,64.0816179,-605.0000721,-1,-1,-1,-1
1.71E+12,128,128,-1,-1,-1,-1,53.74454206,10.33360176,64.07814383,-605.0000721,-1,-1,-1,-1
1.71E+12,128,128,-1,-1,-1,-1,53.74174308,10.33283186,64.07457494,-605.0000721,-1,-1,-1,-1
1.71E+12,128,128,-1,-1,-1,-1,53.73893913,10.33197862,64.07091775,-605.0000721,-1,-1,-1,-1
1.71E+12,128,128,-1,-1,-1,-1,53.73613546,10.33104347,64.06717893,-605.0000721,-1,-1,-1,-1
1.71E+12,128,128,-1,-1,-1,-1,53.73333725,10.33002799,64.06336524,-605.0000721,-1,-1,-1,-1
1.71E+12,128,128,-1,-1,-1,-1,53.73054963,10.32893391,64.05948354,-605.0000721,-1,-1,-1,-1
1.71E+12,128,128,-1,-1,-1,-1,53.72777765,10.3277631,64.05554075,-605.0000721,-1,-1,-1,-1
1.71E+12,128,128,-1,-1,-1,-1,53.72502634,10.32651752,64.05154386,-605.0000721,-1,-1,-1,-1
1.71E+12,128,128,-1,-1,-1,-1,53.72230066,10.32519923,64.04749989,-605.0000721,-1,-1,-1,-1
1.71E+12,128,128,-1,-1,-1,-1,53.71960555,10.32381037,64.04341592,-605.0000721,-1,-1,-1,-1
1.71E+12,128,128,-1,-1,-1,-1,53.71694584,10.32235323,64.03929907,-605.0000721,-1,-1,-1,-1
1.71E+12,128,128,-1,-1,-1,-1,53.71432627,10.32083019,64.03515645,-605.0000721,-1,-1,-1,-1
1.71E+12,128,128,-1,-1,-1,-1,53.71175144,10.31924369,64.03099514,-605.0000721,-1,-1,-1,-1
1.71E+12,128,128,-1,-1,-1,-1,53.70922584,10.31759629,64.02682213,-605.0000721,-1,-1,-1,-1
1.71E+12,128,128,-1,-1,-1,-1,53.70675378,10.3158906,64.02264438,-605.0000721,-1,-1,-1,-1
1.71E+12,128,128,-1,-1,-1,-1,53.70433946,10.31412933,64.01846878,-605.0000721,-1,-1,-1,-1
1.71E+12,128,128,-1,-1,-1,-1,53.70198692,10.31231523,64.01430215,-605.0000721,-1,-1,-1,-1
1.71E+12,128,128,-1,-1,-1,-1,53.6997001,10.31045114,64.01015124,-605.0000721,-1,-1,-1,-1
1.71E+12,128,128,-1,-1,-1,-1,53.69748277,10.30853996,64.00602272,-605.0000721,-1,-1,-1,-1
1.71E+12,128,128,-1,-1,-1,-1,53.69533851,10.30658461,64.00192312,-605.0000721,-1,-1,-1,-1
1.71E+12,128,128,-1,-1,-1,-1,53.69327071,10.30458809,63.99785881,-605.0000721,-1,-1,-1,-1
1.71E+12,128,128,-1,-1,-1,-1,53.69128258,10.30255343,63.99383601,-605.0000721,-1,-1,-1,-1
1.71E+12,128,128,-1,-1,-1,-1,53.68937712,10.30048367,63.98986079,-605.0000721,-1,-1,-1,-1
1.71E+12,128,128,-1,-1,-1,-1,53.68755711,10.29838189,63.985939,-605.0000721,-1,-1,-1,-1
1.71E+12,128,128,-1,-1,-1,-1,53.68582514,10.29625115,63.98207629,-605.0000721,-1,-1,-1,-1
1.71E+12,128,128,-1,-1,-1,-1,53.68418363,10.29409453,63.97827816,-605.0000721,-1,-1,-1,-1
1.71E+12,128,128,-1,-1,-1,-1,53.68263481,10.29191512,63.97454994,-605.0000721,-1,-1,-1,-1
1.71E+12,128,128,-1,-1,-1,-1,53.68118075,10.28971599,63.97089674,-605.0000721,-1,-1,-1,-1
1.71E+12,128,128,-1,-1,-1,-1,53.67982326,10.28750019,63.96732345,-605.0000721,-1,-1,-1,-1
1.71E+12,128,128,-1,-1,-1,-1,53.67856394,10.28527076,63.9638347,-605.0000721,-1,-1,-1,-1
1.71E+12,128,128,-1,-1,-1,-1,53.67740416,10.2830307,63.96043486,-605.0000721,-1,-1,-1,-1
1.71E+12,128,128,-1,-1,-1,-1,53.67634505,10.28078298,63.95712803,-605.0000721,-1,-1,-1,-1
1.71E+12,128,128,-1,-1,-1,-1,53.67538756,10.27853053,63.95391808,-605.0000721,-1,-1,-1,-1
1.71E+12,128,128,-1,-1,-1,-1,53.6745324,10.27627621,63.95080861,-605.0000721,-1,-1,-1,-1
1.71E+12,128,128,-1,-1,-1,-1,53.67378013,10.27402285,63.94780298,-605.0000721,-1,-1,-1,-1
1.71E+12,128,128,-1,-1,-1,-1,53.67313111,10.27177321,63.94490433,-605.0000721,-1,-1,-1,-1
1.71E+12,128,128,-1,-1,-1,-1,53.67258553,10.26953002,63.94211555,-605.0000721,-1,-1,-1,-1
1.71E+12,128,128,-1,-1,-1,-1,53.67214336,10.26729593,63.93943929,-605.0000721,-1,-1,-1,-1
1.71E+12,128,128,-1,-1,-1,-1,53.67180435,10.26507351,63.93687786,-605.0000721,-1,-1,-1,-1
1.71E+12,128,128,-1,-1,-1,-1,53.67156806,10.26286528,63.93443333,-605.0000721,-1,-1,-1,-1
1.71E+12,128,128,-1,-1,-1,-1,53.67143389,10.26067364,63.93210752,-605.0000721,-1,-1,-1,-1
1.71E+12,128,128,-1,-1,-1,-1,53.6714011,10.25850093,63.92990203,-605.0000721,-1,-1,-1,-1
1.71E+12,128,128,-1,-1,-1,-1,53.67146889,10.25634941,63.9278183,-605.0000721,-1,-1,-1,-1
1.71E+12,128,128,-1,-1,-1,-1,53.67163629,10.25422122,63.92585751,-605.0000721,-1,-1,-1,-1
1.71E+12,128,128,-1,-1,-1,-1,53.67190223,10.25211844,63.92402067,-605.0000721,-1,-1,-1,-1
1.71E+12,128,128,-1,-1,-1,-1,53.67226545,10.25004307,63.92230852,-605.0000721,-1,-1,-1,-1
1.71E+12,128,128,-1,-1,-1,-1,53.67272449,10.24799703,63.92072152,-605.0000721,-1,-1,-1,-1
1.71E+12,128,128,-1,-1,-1,-1,53.67327769,10.24598215,63.91925984,-605.0000721,-1,-1,-1,-1
1.71E+12,128,128,-1,-1,-1,-1,53.67392319,10.24400012,63.91792331,-605.0000721,-1,-1,-1,-1
1.71E+12,128,128,-1,-1,-1,-1,53.67465905,10.24205253,63.91671158,-605.0000721,-1,-1,-1,-1
1.71E+12,128,128,-1,-1,-1,-1,53.67548327,10.24014085,63.91562413,-605.0000721,-1,-1,-1,-1
1.71E+12,128,128,-1,-1,-1,-1,53.67639383,10.23826646,63.91466029,-605.0000721,-1,-1,-1,-1
1.71E+12,128,128,-1,-1,-1,-1,53.67738864,10.23643065,63.91381929,-605.0000721,-1,-1,-1,-1
1.71E+12,128,128,-1,-1,-1,-1,53.67846556,10.23463461,63.91310017,-605.0000721,-1,-1,-1,-1
1.71E+12,128,128,-1,-1,-1,-1,53.67962232,10.23287945,63.91250178,-605.0000721,-1,-1,-1,-1
1.71E+12,128,128,-1,-1,-1,-1,53.68085656,10.23116619,63.91202275,-605.0000721,-1,-1,-1,-1
1.71E+12,128,128,-1,-1,-1,-1,53.6821658,10.22949571,63.91166152,-605.0000721,-1,-1,-1,-1
1.71E+12,128,128,-1,-1,-1,-1,53.68354751,10.22786883,63.91141634,-605.0000721,-1,-1,-1,-1
1.71E+12,128,128,-1,-1,-1,-1,53.68499911,10.22628623,63.91128534,-605.0000721,-1,-1,-1,-1
1.71E+12,128,128,-1,-1,-1,-1,53.68651803,10.22474851,63.91126654,-605.0000721,-1,-1,-1,-1
1.71E+12,128,128,-1,-1,-1,-1,53.68810167,10.22325618,63.91135785,-605.0000721,-1,-1,-1,-1
1.71E+12,128,128,-1,-1,-1,-1,53.68974744,10.22180964,63.91155709,-605.0000721,-1,-1,-1,-1
1.71E+12,128,128,-1,-1,-1,-1,53.69145277,10.22040922,63.91186199,-605.0000721,-1,-1,-1,-1
1.71E+12,128,128,-1,-1,-1,-1,53.69321506,10.21905519,63.91227025,-605.0000721,-1,-1,-1,-1
1.71E+12,128,128,-1,-1,-1,-1,53.69503173,10.21774771,63.91277945,-605.0000721,-1,-1,-1,-1
1.71E+12,128,128,-1,-1,-1,-1,53.69690022,10.21648689,63.91338712,-605.0000721,-1,-1,-1,-1
1.71E+12,128,128,-1,-1,-1,-1,53.69881799,10.21527273,63.91409072,-605.0000721,-1,-1,-1,-1
1.71E+12,128,128,-1,-1,-1,-1,53.7007825,10.21410516,63.91488766,-605.0000721,-1,-1,-1,-1
1.71E+12,128,128,-1,-1,-1,-1,53.70279127,10.21298403,63.9157753,-605.0000721,-1,-1,-1,-1
1.71E+12,128,128,-1,-1,-1,-1,53.70484189,10.21190912,63.91675101,-605.0000721,-1,-1,-1,-1
1.71E+12,128,128,-1,-1,-1,-1,53.70693203,10.21088011,63.91781214,-605.0000721,-1,-1,-1,-1
1.71E+12,128,128,-1,-1,-1,-1,53.70905947,10.20989661,63.91895608,-605.0000721,-1,-1,-1,-1
1.71E+12,128,128,-1,-1,-1,-1,53.711222,10.20895817,63.92018016,-605.0000721,-1,-1,-1,-1
1.71E+12,128,128,-1,-1,-1,-1,53.71341741,10.2080643,63.92148171,-605.0000721,-1,-1,-1,-1
1.71E+12,128,128,-1,-1,-1,-1,53.71564352,10.20721447,63.922858,-605.0000721,-1,-1,-1,-1
1.71E+12,128,128,-1,-1,-1,-1,53.71789815,10.20640814,63.9243063,-605.0000721,-1,-1,-1,-1
1.71E+12,128,128,-1,-1,-1,-1,53.72017918,10.20564467,63.92582386,-605.0000721,-1,-1,-1,-1
1.71E+12,128,128,-1,-1,-1,-1,53.72248457,10.20492339,63.92740796,-605.0000721,-1,-1,-1,-1
1.71E+12,128,128,-1,-1,-1,-1,53.72481236,10.20424354,63.92905591,-605.0000721,-1,-1,-1,-1
1.71E+12,128,128,-1,-1,-1,-1,53.72716072,10.20360431,63.93076504,-605.0000721,-1,-1,-1,-1
1.71E+12,128,128,-1,-1,-1,-1,53.72952787,10.20300482,63.93253268,-605.0000721,-1,-1,-1,-1
1.71E+12,128,128,-1,-1,-1,-1,53.73191208,10.20244414,63.93435622,-605.0000721,-1,-1,-1,-1
1.71E+12,128,128,-1,-1,-1,-1,53.73431169,10.20192135,63.93623304,-605.0000721,-1,-1,-1,-1
1.71E+12,128,128,-1,-1,-1,-1,53.73672506,10.20143549,63.93816056,-605.0000721,-1,-1,-1,-1
1.71E+12,128,128,-1,-1,-1,-1,53.73915062,10.2009856,63.94013622,-605.0000721,-1,-1,-1,-1
1.71E+12,128,128,-1,-1,-1,-1,53.74158691,10.20057067,63.94215758,-605.0000721,-1,-1,-1,-1
1.71E+12,128,128,-1,-1,-1,-1,53.74403257,10.20018966,63.94422222,-605.0000721,-1,-1,-1,-1
1.71E+12,128,128,-1,-1,-1,-1,53.74648634,10.19984149,63.94632783,-605.0000721,-1,-1,-1,-1
1.71E+12,128,128,-1,-1,-1,-1,53.74894701,10.1995251,63.94847211,-605.0000721,-1,-1,-1,-1
1.71E+12,128,128,-1,-1,-1,-1,53.7514134,10.19923938,63.95065278,-605.0000721,-1,-1,-1,-1
1.71E+12,128,128,-1,-1,-1,-1,53.7538843,10.19898325,63.95286755,-605.0000721,-1,-1,-1,-1
1.71E+12,128,128,-1,-1,-1,-1,53.75635858,10.19875564,63.95511421,-605.0000721,-1,-1,-1,-1
1.71E+12,128,128,-1,-1,-1,-1,53.75883513,10.19855544,63.95739057,-605.0000721,-1,-1,-1,-1
1.71E+12,128,128,-1,-1,-1,-1,53.76131293,10.19838159,63.95969452,-605.0000721,-1,-1,-1,-1
1.71E+12,128,128,-1,-1,-1,-1,53.76379102,10.19823303,63.96202405,-605.0000721,-1,-1,-1,-1
1.71E+12,128,128,-1,-1,-1,-1,53.76626847,10.19810875,63.96437722,-605.0000721,-1,-1,-1,-1
1.71E+12,128,128,-1,-1,-1,-1,53.76874441,10.19800773,63.96675214,-605.0000721,-1,-1,-1,-1
1.71E+12,128,128,-1,-1,-1,-1,53.77121796,10.19792895,63.96914691,-605.0000721,-1,-1,-1,-1
1.71E+12,128,128,-1,-1,-1,-1,53.77368825,10.19787143,63.97155968,-605.0000721,-1,-1,-1,-1
1.71E+12,128,128,-1,-1,-1,-1,53.77615441,10.19783419,63.9739886,-605.0000721,-1,-1,-1,-1
1.71E+12,128,128,-1,-1,-1,-1,53.77861561,10.19781627,63.97643188,-605.0000721,-1,-1,-1,-1
1.71E+12,128,128,-1,-1,-1,-1,53.78107099,10.19781676,63.97888775,-605.0000721,-1,-1,-1,-1
1.71E+12,128,128,-1,-1,-1,-1,53.78351976,10.19783475,63.98135451,-605.0000721,-1,-1,-1,-1
1.71E+12,128,128,-1,-1,-1,-1,53.78596115,10.19786941,63.98383056,-605.0000721,-1,-1,-1,-1
1.71E+12,128,128,-1,-1,-1,-1,53.78839442,10.19791993,63.98631436,-605.0000721,-1,-1,-1,-1
1.71E+12,128,128,-1,-1,-1,-1,53.79081887,10.19798555,63.98880442,-605.0000721,-1,-1,-1,-1
1.71E+12,128,128,-1,-1,-1,-1,53.79323376,10.19806555,63.99129931,-605.0000721,-1,-1,-1,-1
1.71E+12,128,128,-1,-1,-1,-1,53.79563838,10.19815925,63.99379764,-605.0000721,-1,-1,-1,-1
1.71E+12,128,128,-1,-1,-1,-1,53.79803197,10.19826604,63.99629801,-605.0000721,-1,-1,-1,-1
1.71E+12,128,128,-1,-1,-1,-1,53.80041379,10.19838532,63.99879911,-605.0000721,-1,-1,-1,-1
1.71E+12,128,128,-1,-1,-1,-1,53.80278311,10.19851656,64.00129967,-605.0000721,-1,-1,-1,-1
1.71E+12,128,128,-1,-1,-1,-1,53.80513924,10.19865931,64.00379855,-605.0000721,-1,-1,-1,-1
1.71E+12,128,128,-1,-1,-1,-1,53.80748147,10.19881313,64.0062946,-605.0000721,-1,-1,-1,-1
1.71E+12,128,128,-1,-1,-1,-1,53.80980911,10.19897762,64.00878674,-605.0000721,-1,-1,-1,-1
1.71E+12,128,128,-1,-1,-1,-1,53.81212146,10.19915244,64.0112739,-605.0000721,-1,-1,-1,-1
1.71E+12,128,128,-1,-1,-1,-1,53.81441776,10.19933727,64.01375503,-605.0000721,-1,-1,-1,-1
1.71E+12,128,128,-1,-1,-1,-1,53.81669724,10.19953182,64.01622906,-605.0000721,-1,-1,-1,-1
1.71E+12,128,128,-1,-1,-1,-1,53.81895911,10.19973583,64.01869493,-605.0000721,-1,-1,-1,-1
1.71E+12,128,128,-1,-1,-1,-1,53.82120256,10.19994905,64.02115162,-605.0000721,-1,-1,-1,-1
1.71E+12,128,128,-1,-1,-1,-1,53.82342687,10.20017133,64.02359819,-605.0000721,-1,-1,-1,-1
1.71E+12,128,128,-1,-1,-1,-1,53.82563133,10.20040252,64.02603384,-605.0000721,-1,-1,-1,-1
1.71E+12,128,128,-1,-1,-1,-1,53.82781529,10.20064254,64.02845783,-605.0000721,-1,-1,-1,-1
1.71E+12,128,128,-1,-1,-1,-1,53.82997813,10.20089134,64.03086947,-605.0000721,-1,-1,-1,-1
1.71E+12,128,128,-1,-1,-1,-1,53.83211918,10.20114897,64.03326815,-605.0000721,-1,-1,-1,-1
1.71E+12,128,128,-1,-1,-1,-1,53.83423779,10.20141551,64.0356533,-605.0000721,-1,-1,-1,-1
1.71E+12,128,128,-1,-1,-1,-1,53.83633323,10.2016911,64.03802433,-605.0000721,-1,-1,-1,-1
1.71E+12,128,128,-1,-1,-1,-1,53.83840481,10.20197588,64.04038069,-605.0000721,-1,-1,-1,-1
1.71E+12,128,128,-1,-1,-1,-1,53.84045183,10.20227001,64.04272184,-605.0000721,-1,-1,-1,-1
1.71E+12,128,128,-1,-1,-1,-1,53.84247362,10.20257369,64.04504731,-605.0000721,-1,-1,-1,-1
1.71E+12,128,128,-1,-1,-1,-1,53.84446951,10.20288717,64.04735668,-605.0000721,-1,-1,-1,-1
1.71E+12,128,128,-1,-1,-1,-1,53.84643883,10.20321079,64.04964962,-605.0000721,-1,-1,-1,-1
1.71E+12,128,128,-1,-1,-1,-1,53.84838091,10.20354493,64.05192584,-605.0000721,-1,-1,-1,-1
1.71E+12,128,128,-1,-1,-1,-1,53.85029505,10.20388999,64.05418503,-605.0000721,-1,-1,-1,-1
1.71E+12,128,128,-1,-1,-1,-1,53.85218054,10.20424636,64.0564269,-605.0000721,-1,-1,-1,-1
1.71E+12,128,128,-1,-1,-1,-1,53.85403673,10.20461441,64.05865114,-605.0000721,-1,-1,-1,-1
1.71E+12,128,128,-1,-1,-1,-1,53.85586297,10.20499453,64.06085751,-605.0000721,-1,-1,-1,-1
1.71E+12,128,128,-1,-1,-1,-1,53.8576587,10.2053871,64.0630458,-605.0000721,-1,-1,-1,-1
1.71E+12,128,128,-1,-1,-1,-1,53.85942341,10.20579249,64.06521589,-605.0000721,-1,-1,-1,-1
1.71E+12,128,128,-1,-1,-1,-1,53.86115663,10.20621109,64.06736772,-605.0000721,-1,-1,-1,-1
1.71E+12,128,128,-1,-1,-1,-1,53.86285795,10.2066433,64.06950125,-605.0000721,-1,-1,-1,-1
1.71E+12,128,128,-1,-1,-1,-1,53.86452691,10.20708953,64.07161644,-605.0000721,-1,-1,-1,-1
1.71E+12,128,128,-1,-1,-1,-1,53.86616311,10.20755016,64.07371327,-605.0000721,-1,-1,-1,-1
1.71E+12,128,128,-1,-1,-1,-1,53.8677661,10.2080256,64.0757917,-605.0000721,-1,-1,-1,-1
1.71E+12,128,128,-1,-1,-1,-1,53.86933547,10.20851624,64.07785171,-605.0000721,-1,-1,-1,-1
1.71E+12,128,128,-1,-1,-1,-1,53.87087082,10.20902253,64.07989335,-605.0000721,-1,-1,-1,-1
1.71E+12,128,128,-1,-1,-1,-1,53.8723718,10.20954491,64.08191671,-605.0000721,-1,-1,-1,-1
1.71E+12,128,128,-1,-1,-1,-1,53.87383816,10.2100838,64.08392196,-605.0000721,-1,-1,-1,-1
1.71E+12,128,128,-1,-1,-1,-1,53.87526968,10.21063961,64.08590929,-605.0000721,-1,-1,-1,-1
1.71E+12,128,128,-1,-1,-1,-1,53.87666617,10.2112128,64.08787897,-605.0000721,-1,-1,-1,-1
1.71E+12,128,128,-1,-1,-1,-1,53.87802748,10.21180377,64.08983125,-605.0000721,-1,-1,-1,-1
1.71E+12,128,128,-1,-1,-1,-1,53.8793535,10.21241293,64.09176643,-605.0000721,-1,-1,-1,-1
1.71E+12,128,128,-1,-1,-1,-1,53.88064417,10.21304062,64.0936848,-605.0000721,-1,-1,-1,-1
1.71E+12,128,128,-1,-1,-1,-1,53.88189951,10.21368717,64.09558668,-605.0000721,-1,-1,-1,-1
1.71E+12,128,128,-1,-1,-1,-1,53.8831196,10.21435291,64.09747251,-605.0000721,-1,-1,-1,-1
1.71E+12,128,128,-1,-1,-1,-1,53.88430464,10.21503816,64.0993428,-605.0000721,-1,-1,-1,-1
1.71E+12,128,128,-1,-1,-1,-1,53.88545492,10.21574318,64.1011981,-605.0000721,-1,-1,-1,-1
1.71E+12,128,128,-1,-1,-1,-1,53.88657079,10.21646825,64.10303904,-605.0000721,-1,-1,-1,-1
1.71E+12,128,128,-1,-1,-1,-1,53.88765261,10.21721363,64.10486624,-605.0000721,-1,-1,-1,-1
1.71E+12,128,128,-1,-1,-1,-1,53.88870071,10.21797959,64.1066803,-605.0000721,-1,-1,-1,-1
1.71E+12,128,128,-1,-1,-1,-1,53.88971542,10.21876634,64.10848176,-605.0000721,-1,-1,-1,-1
1.71E+12,128,128,-1,-1,-1,-1,53.89069706,10.21957406,64.11027112,-605.0000721,-1,-1,-1,-1
1.71E+12,128,128,-1,-1,-1,-1,53.89164601,10.22040288,64.11204889,-605.0000721,-1,-1,-1,-1
1.71E+12,128,128,-1,-1,-1,-1,53.8925627,10.22125289,64.11381559,-605.0000721,-1,-1,-1,-1
1.71E+12,128,128,-1,-1,-1,-1,53.89344768,10.22212406,64.11557174,-605.0000721,-1,-1,-1,-1
1.71E+12,128,128,-1,-1,-1,-1,53.89430153,10.22301636,64.11731789,-605.0000721,-1,-1,-1,-1
1.71E+12,128,128,-1,-1,-1,-1,53.89512489,10.22392969,64.11905457,-605.0000721,-1,-1,-1,-1
1.71E+12,128,128,-1,-1,-1,-1,53.89591841,10.22486393,64.12078234,-605.0000721,-1,-1,-1,-1
1.71E+12,128,128,-1,-1,-1,-1,53.89668278,10.22581888,64.12250166,-605.0000721,-1,-1,-1,-1
1.71E+12,128,128,-1,-1,-1,-1,53.89741876,10.22679425,64.12421301,-605.0000721,-1,-1,-1,-1
1.71E+12,128,128,-1,-1,-1,-1,53.89812711,10.22778971,64.12591682,-605.0000721,-1,-1,-1,-1
1.71E+12,128,128,-1,-1,-1,-1,53.89880867,10.22880485,64.12761353,-605.0000721,-1,-1,-1,-1
1.71E+12,128,128,-1,-1,-1,-1,53.89946432,10.22983924,64.12930356,-605.0000721,-1,-1,-1,-1
1.71E+12,128,128,-1,-1,-1,-1,53.90009497,10.23089239,64.13098736,-605.0000721,-1,-1,-1,-1
1.71E+12,128,128,-1,-1,-1,-1,53.90070152,10.23196375,64.13266527,-605.0000721,-1,-1,-1,-1
1.71E+12,128,128,-1,-1,-1,-1,53.90128488,10.23305273,64.13433761,-605.0000721,-1,-1,-1,-1
1.71E+12,128,128,-1,-1,-1,-1,53.90184593,10.23415872,64.13600465,-605.0000721,-1,-1,-1,-1
1.71E+12,128,128,-1,-1,-1,-1,53.90238556,10.23528102,64.13766659,-605.0000721,-1,-1,-1,-1
1.71E+12,128,128,-1,-1,-1,-1,53.90290469,10.23641889,64.13932358,-605.0000721,-1,-1,-1,-1
1.71E+12,128,128,-1,-1,-1,-1,53.90340424,10.23757151,64.14097575,-605.0000721,-1,-1,-1,-1
1.71E+12,128,128,-1,-1,-1,-1,53.9038852,10.238738,64.1426232,-605.0000721,-1,-1,-1,-1
1.71E+12,128,128,-1,-1,-1,-1,53.90434857,10.23991741,64.14426598,-605.0000721,-1,-1,-1,-1
1.71E+12,128,128,-1,-1,-1,-1,53.90479538,10.24110874,64.14590412,-605.0000721,-1,-1,-1,-1
1.71E+12,128,128,-1,-1,-1,-1,53.90522659,10.24231099,64.14753758,-605.0000721,-1,-1,-1,-1
1.71E+12,128,128,-1,-1,-1,-1,53.90564315,10.2435231,64.14916624,-605.0000721,-1,-1,-1,-1
1.71E+12,128,128,-1,-1,-1,-1,53.90604594,10.24474399,64.15078993,-605.0000721,-1,-1,-1,-1
1.71E+12,128,128,-1,-1,-1,-1,53.90643583,10.24597255,64.15240838,-605.0000721,-1,-1,-1,-1
1.71E+12,128,128,-1,-1,-1,-1,53.9068137,10.24720758,64.15402128,-605.0000721,-1,-1,-1,-1
1.71E+12,128,128,-1,-1,-1,-1,53.90718045,10.24844783,64.15562828,-605.0000721,-1,-1,-1,-1
1.71E+12,128,128,-1,-1,-1,-1,53.90753702,10.24969197,64.15722898,-605.0000721,-1,-1,-1,-1
1.71E+12,128,128,-1,-1,-1,-1,53.90788434,10.25093865,64.15882299,-605.0000721,-1,-1,-1,-1
1.71E+12,128,128,-1,-1,-1,-1,53.90822336,10.2521865,64.16040985,-605.0000721,-1,-1,-1,-1
1.71E+12,128,128,-1,-1,-1,-1,53.90855497,10.2534341,64.16198907,-605.0000721,-1,-1,-1,-1
1.71E+12,128,128,-1,-1,-1,-1,53.90888004,10.25468,64.16356004,-605.0000721,-1,-1,-1,-1
1.71E+12,128,128,-1,-1,-1,-1,53.90919938,10.25592272,64.1651221,-605.0000721,-1,-1,-1,-1
1.71E+12,128,128,-1,-1,-1,-1,53.90951372,10.25716075,64.16667447,-605.0000721,-1,-1,-1,-1
1.71E+12,128,128,-1,-1,-1,-1,53.9098238,10.25839257,64.16821637,-605.0000721,-1,-1,-1,-1
1.71E+12,128,128,-1,-1,-1,-1,53.91013029,10.25961664,64.16974693,-605.0000721,-1,-1,-1,-1
1.71E+12,128,128,-1,-1,-1,-1,53.91043388,10.26083142,64.1712653,-605.0000721,-1,-1,-1,-1
1.71E+12,128,128,-1,-1,-1,-1,53.91073521,10.26203536,64.17277058,-605.0000721,-1,-1,-1,-1
1.71E+12,128,128,-1,-1,-1,-1,53.91103493,10.26322694,64.17426187,-605.0000721,-1,-1,-1,-1
1.71E+12,128,128,-1,-1,-1,-1,53.91133364,10.26440464,64.17573828,-605.0000721,-1,-1,-1,-1
1.71E+12,128,128,-1,-1,-1,-1,53.91163189,10.26556696,64.17719885,-605.0000721,-1,-1,-1,-1
1.71E+12,128,128,-1,-1,-1,-1,53.91193018,10.2667124,64.17864258,-605.0000721,-1,-1,-1,-1
1.71E+12,128,128,-1,-1,-1,-1,53.91222899,10.26783948,64.18006847,-605.0000721,-1,-1,-1,-1
1.71E+12,128,128,-1,-1,-1,-1,53.91252877,10.26894671,64.18147548,-605.0000721,-1,-1,-1,-1
1.71E+12,128,128,-1,-1,-1,-1,53.91283,10.27003261,64.18286261,-605.0000721,-1,-1,-1,-1
1.71E+12,128,128,-1,-1,-1,-1,53.91313313,10.27109574,64.18422887,-605.0000721,-1,-1,-1,-1
1.71E+12,128,128,-1,-1,-1,-1,53.91343858,10.27213469,64.18557327,-605.0000721,-1,-1,-1,-1
1.71E+12,128,128,-1,-1,-1,-1,53.91374673,10.27314803,64.18689477,-605.0000721,-1,-1,-1,-1
1.71E+12,128,128,-1,-1,-1,-1,53.91405785,10.27413436,64.18819222,-605.0000721,-1,-1,-1,-1
1.71E+12,128,128,-1,-1,-1,-1,53.91437217,10.27509216,64.18946432,-605.0000721,-1,-1,-1,-1
1.71E+12,128,128,-1,-1,-1,-1,53.91468992,10.27601968,64.1907096,-605.0000721,-1,-1,-1,-1
1.71E+12,128,128,-1,-1,-1,-1,53.91501142,10.27691498,64.1919264,-605.0000721,-1,-1,-1,-1
1.71E+12,128,128,-1,-1,-1,-1,53.91533709,10.27777588,64.19311297,-605.0000721,-1,-1,-1,-1
1.71E+12,128,128,-1,-1,-1,-1,53.91566743,10.27860017,64.19426761,-605.0000721,-1,-1,-1,-1
1.71E+12,128,128,-1,-1,-1,-1,53.91600308,10.27938557,64.19538865,-605.0000721,-1,-1,-1,-1
1.71E+12,128,128,-1,-1,-1,-1,53.91634481,10.28012976,64.19647457,-605.0000721,-1,-1,-1,-1
1.71E+12,128,128,-1,-1,-1,-1,53.91669355,10.28083038,64.19752393,-605.0000721,-1,-1,-1,-1
1.71E+12,128,128,-1,-1,-1,-1,53.91705042,10.28148502,64.19853544,-605.0000721,-1,-1,-1,-1
1.71E+12,128,128,-1,-1,-1,-1,53.91741677,10.28209134,64.19950811,-605.0000721,-1,-1,-1,-1
1.71E+12,128,128,-1,-1,-1,-1,53.91779415,10.28264713,64.20044129,-605.0000721,-1,-1,-1,-1
1.71E+12,128,128,-1,-1,-1,-1,53.91818432,10.28315051,64.20133483,-605.0000721,-1,-1,-1,-1
1.71E+12,128,128,-1,-1,-1,-1,53.91858926,10.28359991,64.20218916,-605.0000721,-1,-1,-1,-1
1.71E+12,128,128,-1,-1,-1,-1,53.91901115,10.28399412,64.20300527,-605.0000721,-1,-1,-1,-1
1.71E+12,128,128,-1,-1,-1,-1,53.91945203,10.28433278,64.20378481,-605.0000721,-1,-1,-1,-1
1.71E+12,128,128,-1,-1,-1,-1,53.91991355,10.28461667,64.20453022,-605.0000721,-1,-1,-1,-1
1.71E+12,128,128,-1,-1,-1,-1,53.92039674,10.28484801,64.20524475,-605.0000721,-1,-1,-1,-1
1.71E+12,128,128,-1,-1,-1,-1,53.92090183,10.28503064,64.20593247,-605.0000721,-1,-1,-1,-1
1.71E+12,128,128,-1,-1,-1,-1,53.9214285,10.28516945,64.20659796,-605.0000721,-1,-1,-1,-1
1.71E+12,128,128,-1,-1,-1,-1,53.92197627,10.28526938,64.20724565,-605.0000721,-1,-1,-1,-1
1.71E+12,128,128,-1,-1,-1,-1,53.92254455,10.28533495,64.20787949,-605.0000721,-1,-1,-1,-1
1.71E+12,128,128,-1,-1,-1,-1,53.92313273,10.28537022,64.20850295,-605.0000721,-1,-1,-1,-1
1.71E+12,128,128,-1,-1,-1,-1,53.92374013,10.28537879,64.20911893,-605.0000721,-1,-1,-1,-1
1.71E+12,128,128,-1,-1,-1,-1,53.92436592,10.28536404,64.20972996,-605.0000721,-1,-1,-1,-1
1.71E+12,128,128,-1,-1,-1,-1,53.92500904,10.28532942,64.21033846,-605.0000721,-1,-1,-1,-1
1.71E+12,128,128,-1,-1,-1,-1,53.92566826,10.28527833,64.21094658,-605.0000721,-1,-1,-1,-1
1.71E+12,128,128,-1,-1,-1,-1,53.92634229,10.28521394,64.21155623,-605.0000721,-1,-1,-1,-1
1.71E+12,128,128,-1,-1,-1,-1,53.9270299,10.28513924,64.21216915,-605.0000721,-1,-1,-1,-1
1.71E+12,128,128,-1,-1,-1,-1,53.92772987,10.28505708,64.21278695,-605.0000721,-1,-1,-1,-1
1.71E+12,128,128,-1,-1,-1,-1,53.92844107,10.28497011,64.21341118,-605.0000721,-1,-1,-1,-1
1.71E+12,128,128,-1,-1,-1,-1,53.92916259,10.28488086,64.21404345,-605.0000721,-1,-1,-1,-1
1.71E+12,128,128,-1,-1,-1,-1,53.92989374,10.28479178,64.21468551,-605.0000721,-1,-1,-1,-1
1.71E+12,128,128,-1,-1,-1,-1,53.93063402,10.2847053,64.21533932,-605.0000721,-1,-1,-1,-1
1.71E+12,128,128,-1,-1,-1,-1,53.93138322,10.2846239,64.21600712,-605.0000721,-1,-1,-1,-1
1.71E+12,128,128,-1,-1,-1,-1,53.9321413,10.28455016,64.21669146,-605.0000721,-1,-1,-1,-1
1.71E+12,128,128,-1,-1,-1,-1,53.93290825,10.28448683,64.21739509,-605.0000721,-1,-1,-1,-1
1.71E+12,128,128,-1,-1,-1,-1,53.93368409,10.28443682,64.21812091,-605.0000721,-1,-1,-1,-1
1.71E+12,128,128,-1,-1,-1,-1,53.93446881,10.28440318,64.21887199,-605.0000721,-1,-1,-1,-1
1.71E+12,128,128,-1,-1,-1,-1,53.93526232,10.28438918,64.2196515,-605.0000721,-1,-1,-1,-1
1.71E+12,128,128,-1,-1,-1,-1,53.9360644,10.28439828,64.22046267,-605.0000721,-1,-1,-1,-1
1.71E+12,128,128,-1,-1,-1,-1,53.93687467,10.2844341,64.22130878,-605.0000721,-1,-1,-1,-1
1.71E+12,128,128,-1,-1,-1,-1,53.93769262,10.28450043,64.22219305,-605.0000721,-1,-1,-1,-1
1.71E+12,128,128,-1,-1,-1,-1,53.93851752,10.28460119,64.22311871,-605.0000721,-1,-1,-1,-1
1.71E+12,128,128,-1,-1,-1,-1,53.93934851,10.28474042,64.22408893,-605.0000721,-1,-1,-1,-1
1.71E+12,128,128,-1,-1,-1,-1,53.94018462,10.2849222,64.22510682,-605.0000721,-1,-1,-1,-1
1.71E+12,128,128,-1,-1,-1,-1,53.94102482,10.28515067,64.22617549,-605.0000721,-1,-1,-1,-1
1.71E+12,128,128,-1,-1,-1,-1,53.94186801,10.28542997,64.22729798,-605.0000721,-1,-1,-1,-1
1.71E+12,128,128,-1,-1,-1,-1,53.94271301,10.28576425,64.22847727,-605.0000721,-1,-1,-1,-1
1.71E+12,128,128,-1,-1,-1,-1,53.94355861,10.28615762,64.22971623,-605.0000721,-1,-1,-1,-1
1.71E+12,128,128,-1,-1,-1,-1,53.94440352,10.28661412,64.23101764,-605.0000721,-1,-1,-1,-1
1.71E+12,128,128,-1,-1,-1,-1,53.94524639,10.28713774,64.23238413,-605.0000721,-1,-1,-1,-1
1.71E+12,128,128,-1,-1,-1,-1,53.94608579,10.28773237,64.23381817,-605.0000721,-1,-1,-1,-1
1.71E+12,128,128,-1,-1,-1,-1,53.94692023,10.28840179,64.23532202,-605.0000721,-1,-1,-1,-1
1.71E+12,128,128,-1,-1,-1,-1,53.94774812,10.28914963,64.23689775,-605.0000721,-1,-1,-1,-1
1.71E+12,128,128,-1,-1,-1,-1,53.94856783,10.28997936,64.23854719,-605.0000721,-1,-1,-1,-1
1.71E+12,128,128,-1,-1,-1,-1,53.94937769,10.29089431,64.240272,-605.0000721,-1,-1,-1,-1
1.71E+12,128,128,-1,-1,-1,-1,53.95017599,10.29189761,64.2420736,-605.0000721,-1,-1,-1,-1
1.71E+12,128,128,-1,-1,-1,-1,53.95096099,10.29299222,64.24395321,-605.0000721,-1,-1,-1,-1
1.71E+12,128,128,-1,-1,-1,-1,53.95173093,10.29418086,64.24591179,-605.0000721,-1,-1,-1,-1
1.71E+12,128,128,-1,-1,-1,-1,53.95248398,10.29546605,64.24795003,-605.0000721,-1,-1,-1,-1
1.71E+12,128,128,-1,-1,-1,-1,53.95321829,10.29685007,64.25006836,-605.0000721,-1,-1,-1,-1
1.71E+12,128,128,-1,-1,-1,-1,53.95393193,10.29833494,64.25226687,-605.0000721,-1,-1,-1,-1
1.71E+12,128,128,-1,-1,-1,-1,53.95462301,10.29992237,64.25454539,-605.0000721,-1,-1,-1,-1
1.71E+12,128,128,-1,-1,-1,-1,53.95528967,10.30161378,64.25690345,-605.0000721,-1,-1,-1,-1
1.71E+12,128,128,-1,-1,-1,-1,53.9559301,10.30341022,64.25934032,-605.0000721,-1,-1,-1,-1
1.71E+12,128,128,-1,-1,-1,-1,53.95654253,10.30531247,64.261855,-605.0000721,-1,-1,-1,-1
1.71E+12,128,128,-1,-1,-1,-1,53.95712526,10.30732096,64.26444622,-605.0000721,-1,-1,-1,-1
1.71E+12,128,128,-1,-1,-1,-1,53.9576766,10.30943582,64.26711242,-605.0000721,-1,-1,-1,-1
1.71E+12,128,128,-1,-1,-1,-1,53.9581949,10.31165683,64.26985173,-605.0000721,-1,-1,-1,-1
1.71E+12,128,128,-1,-1,-1,-1,53.95867851,10.31398345,64.27266196,-605.0000721,-1,-1,-1,-1
1.71E+12,128,128,-1,-1,-1,-1,53.95912587,10.31641481,64.27554068,-605.0000721,-1,-1,-1,-1
1.71E+12,128,128,-1,-1,-1,-1,53.95953549,10.31894968,64.27848517,-605.0000721,-1,-1,-1,-1
1.71E+12,128,128,-1,-1,-1,-1,53.95990598,10.32158648,64.28149246,-605.0000721,-1,-1,-1,-1
1.71E+12,128,128,-1,-1,-1,-1,53.96023604,10.32432327,64.28455931,-605.0000721,-1,-1,-1,-1
1.71E+12,128,128,-1,-1,-1,-1,53.96052447,10.32715777,64.28768225,-605.0000721,-1,-1,-1,-1
1.71E+12,128,128,-1,-1,-1,-1,53.96077017,10.33008736,64.29085752,-605.0000721,-1,-1,-1,-1
1.71E+12,128,128,-1,-1,-1,-1,53.96097209,10.33310902,64.29408111,-605.0000721,-1,-1,-1,-1
1.71E+12,128,128,-1,-1,-1,-1,53.96112931,10.3362194,64.29734871,-605.0000721,-1,-1,-1,-1
1.71E+12,128,128,-1,-1,-1,-1,53.96124103,10.3394148,64.30065583,-605.0000721,-1,-1,-1,-1
1.71E+12,128,128,-1,-1,-1,-1,53.96130656,10.34269119,64.30399775,-605.0000721,-1,-1,-1,-1
1.71E+12,128,128,-1,-1,-1,-1,53.96132542,10.34604423,64.30736965,-605.0000721,-1,-1,-1,-1
1.71E+12,128,128,-1,-1,-1,-1,53.96129729,10.34946925,64.31076654,-605.0000721,-1,-1,-1,-1
1.71E+12,128,128,-1,-1,-1,-1,53.96122205,10.35296124,64.31418329,-605.0000721,-1,-1,-1,-1
1.71E+12,128,128,-1,-1,-1,-1,53.96109971,10.35651487,64.31761458,-605.0000721,-1,-1,-1,-1
1.71E+12,128,128,-1,-1,-1,-1,53.96093036,10.36012458,64.32105494,-605.0000721,-1,-1,-1,-1
1.71E+12,128,128,-1,-1,-1,-1,53.96071427,10.36378451,64.32449878,-605.0000721,-1,-1,-1,-1
1.71E+12,128,128,-1,-1,-1,-1,53.9604518,10.36748857,64.32794037,-605.0000721,-1,-1,-1,-1
1.71E+12,128,128,-1,-1,-1,-1,53.96014348,10.37123044,64.33137392,-605.0000721,-1,-1,-1,-1
1.71E+12,128,128,-1,-1,-1,-1,53.95979001,10.37500359,64.3347936,-605.0000721,-1,-1,-1,-1
1.71E+12,128,128,-1,-1,-1,-1,53.95939228,10.37880131,64.33819358,-605.0000721,-1,-1,-1,-1
1.71E+12,128,128,-1,-1,-1,-1,53.95895136,10.38261671,64.34156808,-605.0000721,-1,-1,-1,-1
1.71E+12,128,128,-1,-1,-1,-1,53.95846851,10.38644279,64.3449113,-605.0000721,-1,-1,-1,-1
1.71E+12,128,128,-1,-1,-1,-1,53.95794512,10.39027237,64.34821749,-605.0000721,-1,-1,-1,-1
1.71E+12,128,128,-1,-1,-1,-1,53.95738279,10.39409817,64.35148096,-605.0000721,-1,-1,-1,-1
1.71E+12,128,128,-1,-1,-1,-1,53.95678323,10.3979128,64.35469603,-605.0000721,-1,-1,-1,-1
1.71E+12,128,128,-1,-1,-1,-1,53.95614831,10.40170879,64.35785709,-605.0000721,-1,-1,-1,-1
1.71E+12,128,128,-1,-1,-1,-1,53.95548004,10.40547861,64.36095865,-605.0000721,-1,-1,-1,-1
1.71E+12,128,128,-1,-1,-1,-1,53.95478059,10.4092147,64.36399529,-605.0000721,-1,-1,-1,-1
1.71E+12,128,128,-1,-1,-1,-1,53.95405227,10.41290949,64.36696176,-605.0000721,-1,-1,-1,-1
1.71E+12,128,128,-1,-1,-1,-1,53.95329754,10.41655541,64.36985295,-605.0000721,-1,-1,-1,-1
1.71E+12,128,128,-1,-1,-1,-1,53.95251898,10.42014497,64.37266395,-605.0000721,-1,-1,-1,-1
1.71E+12,128,128,-1,-1,-1,-1,53.95171927,10.4236707,64.37538997,-605.0000721,-1,-1,-1,-1
1.71E+12,128,128,-1,-1,-1,-1,53.95090119,10.42712525,64.37802644,-605.0000721,-1,-1,-1,-1
1.71E+12,128,128,-1,-1,-1,-1,53.9500676,10.43050137,64.38056897,-605.0000721,-1,-1,-1,-1
1.71E+12,128,128,-1,-1,-1,-1,53.94922144,10.43379197,64.38301341,-605.0000721,-1,-1,-1,-1
1.71E+12,128,128,-1,-1,-1,-1,53.94836576,10.43699012,64.38535588,-605.0000721,-1,-1,-1,-1
1.71E+12,128,128,-1,-1,-1,-1,53.94750373,10.44008911,64.38759284,-605.0000721,-1,-1,-1,-1
1.71E+12,128,128,-1,-1,-1,-1,53.94663863,10.4430824,64.38972103,-605.0000721,-1,-1,-1,-1
1.71E+12,128,128,-1,-1,-1,-1,53.94577376,10.4459637,64.39173746,-605.0000721,-1,-1,-1,-1
1.71E+12,128,128,-1,-1,-1,-1,53.94491243,10.44872691,64.39363934,-605.0000721,-1,-1,-1,-1
1.71E+12,128,128,-1,-1,-1,-1,53.94405787,10.45136621,64.39542408,-605.0000721,-1,-1,-1,-1
1.71E+12,128,128,-1,-1,-1,-1,53.9432133,10.45387605,64.39708935,-605.0000721,-1,-1,-1,-1
1.71E+12,128,128,-1,-1,-1,-1,53.94238192,10.45625118,64.3986331,-605.0000721,-1,-1,-1,-1
1.71E+12,128,128,-1,-1,-1,-1,53.94156693,10.45848665,64.40005358,-605.0000721,-1,-1,-1,-1
1.71E+12,128,128,-1,-1,-1,-1,53.9407716,10.46057781,64.40134941,-605.0000721,-1,-1,-1,-1
1.71E+12,128,128,-1,-1,-1,-1,53.93999922,10.46252036,64.40251959,-605.0000721,-1,-1,-1,-1
1.71E+12,128,128,-1,-1,-1,-1,53.93925309,10.46431034,64.40356344,-605.0000721,-1,-1,-1,-1
1.71E+12,128,128,-1,-1,-1,-1,53.93853647,10.46594419,64.40448066,-605.0000721,-1,-1,-1,-1
1.71E+12,128,128,-1,-1,-1,-1,53.93785258,10.46741874,64.40527132,-605.0000721,-1,-1,-1,-1
1.71E+12,128,128,-1,-1,-1,-1,53.93720459,10.46873125,64.40593584,-605.0000721,-1,-1,-1,-1
1.71E+12,128,128,-1,-1,-1,-1,53.93659559,10.46987935,64.40647494,-605.0000721,-1,-1,-1,-1
1.71E+12,128,128,-1,-1,-1,-1,53.93602859,10.47086106,64.40688965,-605.0000721,-1,-1,-1,-1
1.71E+12,128,128,-1,-1,-1,-1,53.93550654,10.47167484,64.40718138,-605.0000721,-1,-1,-1,-1
1.71E+12,128,128,-1,-1,-1,-1,53.93503232,10.47231963,64.40735195,-605.0000721,-1,-1,-1,-1
1.71E+12,128,128,-1,-1,-1,-1,53.93460871,10.47279478,64.40740349,-605.0000721,-1,-1,-1,-1
1.71E+12,128,128,-1,-1,-1,-1,53.93423836,10.47310011,64.40733847,-605.0000721,-1,-1,-1,-1
1.71E+12,128,128,-1,-1,-1,-1,53.93392379,10.47323593,64.40715972,-605.0000721,-1,-1,-1,-1
1.71E+12,128,128,-1,-1,-1,-1,53.93366736,10.473203,64.40687036,-605.0000721,-1,-1,-1,-1
1.71E+12,128,128,-1,-1,-1,-1,53.93347132,10.47300251,64.40647382,-605.0000721,-1,-1,-1,-1
1.71E+12,128,128,-1,-1,-1,-1,53.93333777,10.4726361,64.40597387,-605.0000721,-1,-1,-1,-1
1.71E+12,128,128,-1,-1,-1,-1,53.93326872,10.47210586,64.40537458,-605.0000721,-1,-1,-1,-1
1.71E+12,128,128,-1,-1,-1,-1,53.933266,10.47141431,64.40468031,-605.0000721,-1,-1,-1,-1
1.71E+12,128,128,-1,-1,-1,-1,53.93333127,10.47056438,64.40389565,-605.0000721,-1,-1,-1,-1
1.71E+12,128,128,-1,-1,-1,-1,53.93346605,10.4695594,64.40302545,-605.0000721,-1,-1,-1,-1
1.71E+12,128,128,-1,-1,-1,-1,53.93367176,10.46840314,64.4020749,-605.0000721,-1,-1,-1,-1
1.71E+12,128,128,-1,-1,-1,-1,53.93394971,10.4670997,64.40104941,-605.0000721,-1,-1,-1,-1
1.71E+12,128,128,-1,-1,-1,-1,53.93430109,10.46565354,64.39995464,-605.0000721,-1,-1,-1,-1
1.71E+12,128,128,-1,-1,-1,-1,53.93472689,10.46406951,64.3987964,-605.0000721,-1,-1,-1,-1
1.71E+12,128,128,-1,-1,-1,-1,53.93522788,10.46235271,64.39758059,-605.0000721,-1,-1,-1,-1
1.71E+12,128,128,-1,-1,-1,-1,53.93580464,10.46050858,64.39631322,-605.0000721,-1,-1,-1,-1
1.71E+12,128,128,-1,-1,-1,-1,53.93645762,10.45854286,64.39500048,-605.0000721,-1,-1,-1,-1
1.71E+12,128,128,-1,-1,-1,-1,53.93718711,10.45646162,64.39364873,-605.0000721,-1,-1,-1,-1
1.71E+12,128,128,-1,-1,-1,-1,53.93799325,10.45427126,64.3922645,-605.0000721,-1,-1,-1,-1
1.71E+12,128,128,-1,-1,-1,-1,53.93887598,10.45197843,64.39085441,-605.0000721,-1,-1,-1,-1
1.71E+12,128,128,-1,-1,-1,-1,53.93983495,10.44959003,64.38942498,-605.0000721,-1,-1,-1,-1
1.71E+12,128,128,-1,-1,-1,-1,53.94086947,10.4471132,64.38798267,-605.0000721,-1,-1,-1,-1
1.71E+12,128,128,-1,-1,-1,-1,53.94197863,10.44455525,64.38653388,-605.0000721,-1,-1,-1,-1
1.71E+12,128,128,-1,-1,-1,-1,53.94316136,10.44192365,64.38508501,-605.0000721,-1,-1,-1,-1
1.71E+12,128,128,-1,-1,-1,-1,53.94441652,10.43922595,64.38364247,-605.0000721,-1,-1,-1,-1
1.71E+12,128,128,-1,-1,-1,-1,53.94574288,10.43646982,64.3822127,-605.0000721,-1,-1,-1,-1
1.71E+12,128,128,-1,-1,-1,-1,53.94713922,10.433663,64.38080222,-605.0000721,-1,-1,-1,-1
1.71E+12,128,128,-1,-1,-1,-1,53.94860416,10.43081327,64.37941744,-605.0000721,-1,-1,-1,-1
1.71E+12,128,128,-1,-1,-1,-1,53.95013627,10.42792843,64.3780647,-605.0000721,-1,-1,-1,-1
1.71E+12,128,128,-1,-1,-1,-1,53.95173393,10.42501627,64.3767502,-605.0000721,-1,-1,-1,-1
1.71E+12,128,128,-1,-1,-1,-1,53.95339535,10.42208461,64.37547996,-605.0000721,-1,-1,-1,-1
1.71E+12,128,128,-1,-1,-1,-1,53.95511861,10.41914126,64.37425986,-605.0000721,-1,-1,-1,-1
1.71E+12,128,128,-1,-1,-1,-1,53.95690159,10.41619397,64.37309556,-605.0000721,-1,-1,-1,-1
1.71E+12,128,128,-1,-1,-1,-1,53.95874203,10.41325047,64.3719925,-605.0000721,-1,-1,-1,-1
1.71E+12,128,128,-1,-1,-1,-1,53.96063756,10.4103184,64.37095596,-605.0000721,-1,-1,-1,-1
1.71E+12,128,128,-1,-1,-1,-1,53.96258569,10.40740531,64.369991,-605.0000721,-1,-1,-1,-1
1.71E+12,128,128,-1,-1,-1,-1,53.96458384,10.4045186,64.36910244,-605.0000721,-1,-1,-1,-1
1.71E+12,128,128,-1,-1,-1,-1,53.96662936,10.40166551,64.36829486,-605.0000721,-1,-1,-1,-1
1.71E+12,128,128,-1,-1,-1,-1,53.96871946,10.39885309,64.36757254,-605.0000721,-1,-1,-1,-1
1.71E+12,128,128,-1,-1,-1,-1,53.97085127,10.39608817,64.36693944,-605.0000721,-1,-1,-1,-1
1.71E+12,128,128,-1,-1,-1,-1,53.97302183,10.39337737,64.3663992,-605.0000721,-1,-1,-1,-1
1.71E+12,128,128,-1,-1,-1,-1,53.97522806,10.39072706,64.36595512,-605.0000721,-1,-1,-1,-1
1.71E+12,128,128,-1,-1,-1,-1,53.9774668,10.38814338,64.36561018,-605.0000721,-1,-1,-1,-1
1.71E+12,128,128,-1,-1,-1,-1,53.97973478,10.38563218,64.36536696,-605.0000721,-1,-1,-1,-1
1.71E+12,128,128,-1,-1,-1,-1,53.98202867,10.38319906,64.36522773,-605.0000721,-1,-1,-1,-1
1.71E+12,128,128,-1,-1,-1,-1,53.98434513,10.38084933,64.36519447,-605.0000721,-1,-1,-1,-1
1.71E+12,128,128,-1,-1,-1,-1,53.9866808,10.378588,64.3652688,-605.0000721,-1,-1,-1,-1
1.71E+12,128,128,-1,-1,-1,-1,53.98903228,10.37641972,64.365452,-605.0000721,-1,-1,-1,-1
1.71E+12,128,128,-1,-1,-1,-1,53.99139621,10.37434881,64.36574503,-605.0000721,-1,-1,-1,-1
1.71E+12,128,128,-1,-1,-1,-1,53.99376926,10.37237925,64.36614851,-605.0000721,-1,-1,-1,-1
1.71E+12,128,128,-1,-1,-1,-1,53.99614817,10.37051463,64.3666628,-605.0000721,-1,-1,-1,-1
1.71E+12,128,128,-1,-1,-1,-1,53.99852978,10.36875816,64.36728794,-605.0000721,-1,-1,-1,-1
1.71E+12,128,128,-1,-1,-1,-1,54.00091098,10.3671127,64.36802368,-605.0000721,-1,-1,-1,-1
1.71E+12,128,128,-1,-1,-1,-1,54.00328869,10.36558081,64.3688695,-605.0000721,-1,-1,-1,-1
1.71E+12,128,128,-1,-1,-1,-1,54.00565981,10.36416468,64.36982449,-605.0000721,-1,-1,-1,-1
1.71E+12,128,128,-1,-1,-1,-1,54.00802121,10.36286615,64.37088736,-605.0000721,-1,-1,-1,-1
1.71E+12,128,128,-1,-1,-1,-1,54.01036979,10.36168669,64.37205648,-605.0000721,-1,-1,-1,-1
1.71E+12,128,128,-1,-1,-1,-1,54.01270248,10.36062737,64.37332984,-605.0000721,-1,-1,-1,-1
1.71E+12,128,128,-1,-1,-1,-1,54.01501625,10.35968893,64.37470518,-605.0000721,-1,-1,-1,-1
1.71E+12,128,128,-1,-1,-1,-1,54.01730823,10.35887175,64.37617998,-605.0000721,-1,-1,-1,-1
1.71E+12,128,128,-1,-1,-1,-1,54.01957565,10.35817584,64.37775149,-605.0000721,-1,-1,-1,-1
1.71E+12,128,128,-1,-1,-1,-1,54.02181588,10.35760083,64.3794167,-605.0000721,-1,-1,-1,-1
1.71E+12,128,128,-1,-1,-1,-1,54.02402633,10.35714602,64.38117235,-605.0000721,-1,-1,-1,-1
1.71E+12,128,128,-1,-1,-1,-1,54.02620449,10.35681035,64.38301483,-605.0000721,-1,-1,-1,-1
1.71E+12,128,128,-1,-1,-1,-1,54.02834783,10.35659244,64.38494027,-605.0000721,-1,-1,-1,-1
1.71E+12,128,128,-1,-1,-1,-1,54.03045391,10.35649057,64.38694448,-605.0000721,-1,-1,-1,-1
1.71E+12,128,128,-1,-1,-1,-1,54.03252034,10.35650266,64.389023,-605.0000721,-1,-1,-1,-1
1.71E+12,128,128,-1,-1,-1,-1,54.03454479,10.35662636,64.39117115,-605.0000721,-1,-1,-1,-1
1.71E+12,128,128,-1,-1,-1,-1,54.03652505,10.35685906,64.39338411,-605.0000721,-1,-1,-1,-1
1.71E+12,128,128,-1,-1,-1,-1,54.03845894,10.35719794,64.39565687,-605.0000721,-1,-1,-1,-1
1.71E+12,128,128,-1,-1,-1,-1,54.04034433,10.35763991,64.39798424,-605.0000721,-1,-1,-1,-1
1.71E+12,128,128,-1,-1,-1,-1,54.04217913,10.35818171,64.40036084,-605.0000721,-1,-1,-1,-1
1.71E+12,128,128,-1,-1,-1,-1,54.04396125,10.3588198,64.40278105,-605.0000721,-1,-1,-1,-1
1.71E+12,128,128,-1,-1,-1,-1,54.04568863,10.35955049,64.40523912,-605.0000721,-1,-1,-1,-1
1.71E+12,128,128,-1,-1,-1,-1,54.04735927,10.36036996,64.40772924,-605.0000721,-1,-1,-1,-1
1.71E+12,128,128,-1,-1,-1,-1,54.04897131,10.36127427,64.41024558,-605.0000721,-1,-1,-1,-1
1.71E+12,128,128,-1,-1,-1,-1,54.05052297,10.36225948,64.41278245,-605.0000721,-1,-1,-1,-1
1.71E+12,128,128,-1,-1,-1,-1,54.0520125,10.36332176,64.41533426,-605.0000721,-1,-1,-1,-1
1.71E+12,128,128,-1,-1,-1,-1,54.0534381,10.36445747,64.41789557,-605.0000721,-1,-1,-1,-1
1.71E+12,128,128,-1,-1,-1,-1,54.0547979,10.36566313,64.42046103,-605.0000721,-1,-1,-1,-1
1.71E+12,128,128,-1,-1,-1,-1,54.05608997,10.36693527,64.42302525,-605.0000721,-1,-1,-1,-1
1.71E+12,128,128,-1,-1,-1,-1,54.05731227,10.36827051,64.42558278,-605.0000721,-1,-1,-1,-1
1.71E+12,128,128,-1,-1,-1,-1,54.05846259,10.36966548,64.42812807,-605.0000721,-1,-1,-1,-1
1.71E+12,128,128,-1,-1,-1,-1,54.05953858,10.37111691,64.43065549,-605.0000721,-1,-1,-1,-1
1.71E+12,128,128,-1,-1,-1,-1,54.06053773,10.3726216,64.43315933,-605.0000721,-1,-1,-1,-1
1.71E+12,128,128,-1,-1,-1,-1,54.0614573,10.37417638,64.43563368,-605.0000721,-1,-1,-1,-1
1.71E+12,128,128,-1,-1,-1,-1,54.06229438,10.375778,64.43807238,-605.0000721,-1,-1,-1,-1
1.71E+12,128,128,-1,-1,-1,-1,54.06304587,10.37742305,64.44046891,-605.0000721,-1,-1,-1,-1
1.71E+12,128,128,-1,-1,-1,-1,54.06370845,10.37910789,64.44281634,-605.0000721,-1,-1,-1,-1
1.71E+12,128,128,-1,-1,-1,-1,54.06427863,10.3808287,64.44510733,-605.0000721,-1,-1,-1,-1
1.71E+12,128,128,-1,-1,-1,-1,54.06475302,10.38258102,64.44733404,-605.0000721,-1,-1,-1,-1
1.71E+12,128,128,-1,-1,-1,-1,54.06512862,10.38435942,64.44948804,-605.0000721,-1,-1,-1,-1
1.71E+12,128,128,-1,-1,-1,-1,54.06540302,10.38615728,64.4515603,-605.0000721,-1,-1,-1,-1
1.71E+12,128,128,-1,-1,-1,-1,54.06557461,10.38796659,64.4535412,-605.0000721,-1,-1,-1,-1
1.71E+12,128,128,-1,-1,-1,-1,54.06564228,10.38977855,64.45542083,-605.0000721,-1,-1,-1,-1
1.71E+12,128,128,-1,-1,-1,-1,54.0656051,10.39158465,64.45718974,-605.0000721,-1,-1,-1,-1
1.71E+12,128,128,-1,-1,-1,-1,54.06546217,10.39337703,64.45883921,-605.0000721,-1,-1,-1,-1
1.71E+12,128,128,-1,-1,-1,-1,54.0652126,10.39514864,64.46036124,-605.0000721,-1,-1,-1,-1
1.71E+12,128,128,-1,-1,-1,-1,54.06485549,10.39689318,64.46174868,-605.0000721,-1,-1,-1,-1
1.71E+12,128,128,-1,-1,-1,-1,54.06439003,10.3986049,64.46299493,-605.0000721,-1,-1,-1,-1
1.71E+12,128,128,-1,-1,-1,-1,54.06381558,10.40027827,64.46409385,-605.0000721,-1,-1,-1,-1
1.71E+12,128,128,-1,-1,-1,-1,54.06313164,10.40190815,64.46503979,-605.0000721,-1,-1,-1,-1
1.71E+12,128,128,-1,-1,-1,-1,54.06233772,10.40348997,64.46582769,-605.0000721,-1,-1,-1,-1
1.71E+12,128,128,-1,-1,-1,-1,54.06143325,10.40501965,64.4664529,-605.0000721,-1,-1,-1,-1
1.71E+12,128,128,-1,-1,-1,-1,54.06041754,10.40649359,64.46691114,-605.0000721,-1,-1,-1,-1
1.71E+12,128,128,-1,-1,-1,-1,54.05928977,10.40790874,64.46719851,-605.0000721,-1,-1,-1,-1
1.71E+12,128,128,-1,-1,-1,-1,54.05804879,10.40926245,64.46731124,-605.0000721,-1,-1,-1,-1
1.71E+12,128,128,-1,-1,-1,-1,54.05669316,10.41055251,64.46724566,-605.0000721,-1,-1,-1,-1
1.71E+12,128,128,-1,-1,-1,-1,54.05522112,10.41177703,64.46699815,-605.0000721,-1,-1,-1,-1
1.71E+12,128,128,-1,-1,-1,-1,54.05363062,10.41293438,64.466565,-605.0000721,-1,-1,-1,-1
1.71E+12,128,128,-1,-1,-1,-1,54.0519194,10.41402315,64.46594255,-605.0000721,-1,-1,-1,-1
1.71E+12,128,128,-1,-1,-1,-1,54.05008515,10.41504203,64.46512718,-605.0000721,-1,-1,-1,-1
1.71E+12,128,128,-1,-1,-1,-1,54.04812567,10.4159898,64.46411547,-605.0000721,-1,-1,-1,-1
1.71E+12,128,128,-1,-1,-1,-1,54.0460388,10.41686539,64.46290419,-605.0000721,-1,-1,-1,-1
1.71E+12,128,128,-1,-1,-1,-1,54.04382254,10.41766778,64.46149032,-605.0000721,-1,-1,-1,-1
1.71E+12,128,128,-1,-1,-1,-1,54.04147498,10.41839602,64.459871,-605.0000721,-1,-1,-1,-1
1.71E+12,128,128,-1,-1,-1,-1,54.03899426,10.41904923,64.45804349,-605.0000721,-1,-1,-1,-1
1.71E+12,128,128,-1,-1,-1,-1,54.03637863,10.41962662,64.45600525,-605.0000721,-1,-1,-1,-1
1.71E+12,128,128,-1,-1,-1,-1,54.03362647,10.42012748,64.45375396,-605.0000721,-1,-1,-1,-1
1.71E+12,128,128,-1,-1,-1,-1,54.03073637,10.4205512,64.45128757,-605.0000721,-1,-1,-1,-1
1.71E+12,128,128,-1,-1,-1,-1,54.02770709,10.42089726,64.44860435,-605.0000721,-1,-1,-1,-1
1.71E+12,128,128,-1,-1,-1,-1,54.02453755,10.42116525,64.4457028,-605.0000721,-1,-1,-1,-1
1.71E+12,128,128,-1,-1,-1,-1,54.02122678,10.42135486,64.44258164,-605.0000721,-1,-1,-1,-1
1.71E+12,128,128,-1,-1,-1,-1,54.01777386,10.42146596,64.43923982,-605.0000721,-1,-1,-1,-1
1.71E+12,128,128,-1,-1,-1,-1,54.01417796,10.42149855,64.43567651,-605.0000721,-1,-1,-1,-1
1.71E+12,128,128,-1,-1,-1,-1,54.01043833,10.42145279,64.43189112,-605.0000721,-1,-1,-1,-1
1.71E+12,128,128,-1,-1,-1,-1,54.00655443,10.42132892,64.42788335,-605.0000721,-1,-1,-1,-1
1.71E+12,128,128,-1,-1,-1,-1,54.00252587,10.42112737,64.42365324,-605.0000721,-1,-1,-1,-1
1.71E+12,128,128,-1,-1,-1,-1,53.99835238,10.42084869,64.41920107,-605.0000721,-1,-1,-1,-1
1.71E+12,128,128,-1,-1,-1,-1,53.99403382,10.42049356,64.41452738,-605.0000721,-1,-1,-1,-1
1.71E+12,128,128,-1,-1,-1,-1,53.98957014,10.4200628,64.40963293,-605.0000721,-1,-1,-1,-1
1.71E+12,128,128,-1,-1,-1,-1,53.98496141,10.41955735,64.40451876,-605.0000721,-1,-1,-1,-1
1.71E+12,128,128,-1,-1,-1,-1,53.98020784,10.4189783,64.39918614,-605.0000721,-1,-1,-1,-1
1.71E+12,128,128,-1,-1,-1,-1,53.97530982,10.41832684,64.39363666,-605.0000721,-1,-1,-1,-1
1.71E+12,128,128,-1,-1,-1,-1,53.97026793,10.41760424,64.38787217,-605.0000721,-1,-1,-1,-1
1.71E+12,128,128,-1,-1,-1,-1,53.96508292,10.41681189,64.38189482,-605.0000721,-1,-1,-1,-1
1.71E+12,128,128,-1,-1,-1,-1,53.95975574,10.41595132,64.37570705,-605.0000721,-1,-1,-1,-1
1.71E+12,128,128,-1,-1,-1,-1,53.95428746,10.41502415,64.3693116,-605.0000721,-1,-1,-1,-1
1.71E+12,128,128,-1,-1,-1,-1,53.94867937,10.41403213,64.3627115,-605.0000721,-1,-1,-1,-1
1.71E+12,128,128,-1,-1,-1,-1,53.94293294,10.41297712,64.35591006,-605.0000721,-1,-1,-1,-1
1.71E+12,128,128,-1,-1,-1,-1,53.93704981,10.41186104,64.34891085,-605.0000721,-1,-1,-1,-1
1.71E+12,128,128,-1,-1,-1,-1,53.93103174,10.41068597,64.34171771,-605.0000721,-1,-1,-1,-1
1.71E+12,128,128,-1,-1,-1,-1,53.92488068,10.40945406,64.33433474,-605.0000721,-1,-1,-1,-1
1.71E+12,128,128,-1,-1,-1,-1,53.91859876,10.40816756,64.32676632,-605.0000721,-1,-1,-1,-1
1.71E+12,128,128,-1,-1,-1,-1,53.91218838,10.40682875,64.31901713,-605.0000721,-1,-1,-1,-1
1.71E+12,128,128,-1,-1,-1,-1,53.90565218,10.40543999,64.31109217,-605.0000721,-1,-1,-1,-1
1.71E+12,128,128,-1,-1,-1,-1,53.89899309,10.40400363,64.30299672,-605.0000721,-1,-1,-1,-1
1.71E+12,128,128,-1,-1,-1,-1,53.89221423,10.40252209,64.29473632,-605.0000721,-1,-1,-1,-1
1.71E+12,128,128,-1,-1,-1,-1,53.88531892,10.4009978,64.28631673,-605.0000721,-1,-1,-1,-1
1.71E+12,128,128,-1,-1,-1,-1,53.87831064,10.39943327,64.2777439,-605.0000721,-1,-1,-1,-1
1.71E+12,128,128,-1,-1,-1,-1,53.87119296,10.39783099,64.26902395,-605.0000721,-1,-1,-1,-1
1.71E+12,128,128,-1,-1,-1,-1,53.86396959,10.39619352,64.26016311,-605.0000721,-1,-1,-1,-1
1.71E+12,128,128,-1,-1,-1,-1,53.85664435,10.39452346,64.2511678,-605.0000721,-1,-1,-1,-1
1.71E+12,128,128,-1,-1,-1,-1,53.84922125,10.3928234,64.24204465,-605.0000721,-1,-1,-1,-1
1.71E+12,128,128,-1,-1,-1,-1,53.8417045,10.39109596,64.23280046,-605.0000721,-1,-1,-1,-1
1.71E+12,128,128,-1,-1,-1,-1,53.83409845,10.38934376,64.2234422,-605.0000721,-1,-1,-1,-1
1.71E+12,128,128,-1,-1,-1,-1,53.82640761,10.38756942,64.21397703,-605.0000721,-1,-1,-1,-1
1.71E+12,128,128,-1,-1,-1,-1,53.81863661,10.38577559,64.2044122,-605.0000721,-1,-1,-1,-1
1.71E+12,128,128,-1,-1,-1,-1,53.8107902,10.38396494,64.19475515,-605.0000721,-1,-1,-1,-1
1.71E+12,128,128,-1,-1,-1,-1,53.80287332,10.3821401,64.18501342,-605.0000721,-1,-1,-1,-1
1.71E+12,128,128,-1,-1,-1,-1,53.794891,10.38030371,64.17519471,-605.0000721,-1,-1,-1,-1
1.71E+12,128,128,-1,-1,-1,-1,53.78684846,10.37845838,64.16530684,-605.0000721,-1,-1,-1,-1
1.71E+12,128,128,-1,-1,-1,-1,53.7787511,10.37660671,64.15535781,-605.0000721,-1,-1,-1,-1
1.71E+12,128,128,-1,-1,-1,-1,53.77060449,10.37475124,64.14535573,-605.0000721,-1,-1,-1,-1
1.71E+12,128,128,-1,-1,-1,-1,53.76241432,10.3728945,64.13530882,-605.0000721,-1,-1,-1,-1
1.71E+12,128,128,-1,-1,-1,-1,53.7541863,10.37103898,64.12522528,-605.0000721,-1,-1,-1,-1
1.71E+12,128,128,-1,-1,-1,-1,53.74592622,10.36918714,64.11511335,-605.0000721,-1,-1,-1,-1
1.71E+12,128,128,-1,-1,-1,-1,53.73763989,10.36734136,64.10498125,-605.0000721,-1,-1,-1,-1
1.71E+12,128,128,-1,-1,-1,-1,53.72933321,10.36550397,64.09483717,-605.0000721,-1,-1,-1,-1
1.71E+12,128,128,-1,-1,-1,-1,53.72101213,10.36367726,64.08468938,-605.0000721,-1,-1,-1,-1
1.71E+12,128,128,-1,-1,-1,-1,53.71268268,10.36186349,64.07454616,-605.0000721,-1,-1,-1,-1
1.71E+12,128,128,-1,-1,-1,-1,53.70435093,10.36006486,64.06441579,-605.0000721,-1,-1,-1,-1
1.71E+12,128,128,-1,-1,-1,-1,53.69602301,10.35828354,64.05430655,-605.0000721,-1,-1,-1,-1
1.71E+12,128,128,-1,-1,-1,-1,53.6877051,10.3565216,64.0442267,-605.0000721,-1,-1,-1,-1
1.71E+12,128,128,-1,-1,-1,-1,53.67940337,10.35478109,64.03418446,-605.0000721,-1,-1,-1,-1
1.71E+12,128,128,-1,-1,-1,-1,53.67112397,10.35306399,64.02418796,-605.0000721,-1,-1,-1,-1
1.71E+12,128,128,-1,-1,-1,-1,53.662873,10.35137221,64.0142452,-605.0000721,-1,-1,-1,-1
1.71E+12,128,128,-1,-1,-1,-1,53.65465653,10.3497076,64.00436413,-605.0000721,-1,-1,-1,-1
1.71E+12,128,128,-1,-1,-1,-1,53.6464806,10.34807195,63.99455255,-605.0000721,-1,-1,-1,-1
1.71E+12,128,128,-1,-1,-1,-1,53.63835123,10.346467,63.98481822,-605.0000721,-1,-1,-1,-1
1.71E+12,128,128,-1,-1,-1,-1,53.63027441,10.34489439,63.97516881,-605.0000721,-1,-1,-1,-1
1.71E+12,128,128,-1,-1,-1,-1,53.62225611,10.34335572,63.96561183,-605.0000721,-1,-1,-1,-1
1.71E+12,128,128,-1,-1,-1,-1,53.61430217,10.34185249,63.95615465,-605.0000721,-1,-1,-1,-1
1.71E+12,128,128,-1,-1,-1,-1,53.60641837,10.34038615,63.94680452,-605.0000721,-1,-1,-1,-1
1.71E+12,128,128,-1,-1,-1,-1,53.59861042,10.33895809,63.93756851,-605.0000721,-1,-1,-1,-1
1.71E+12,128,128,-1,-1,-1,-1,53.59088395,10.33756963,63.92845357,-605.0000721,-1,-1,-1,-1
1.71E+12,128,128,-1,-1,-1,-1,53.58324453,10.33622204,63.91946656,-605.0000721,-1,-1,-1,-1
1.71E+12,128,128,-1,-1,-1,-1,53.57569761,10.33491656,63.91061418,-605.0000721,-1,-1,-1,-1
1.71E+12,128,128,-1,-1,-1,-1,53.56824855,10.33365437,63.90190292,-605.0000721,-1,-1,-1,-1
1.71E+12,128,128,-1,-1,-1,-1,53.56090256,10.33243655,63.8933391,-605.0000721,-1,-1,-1,-1
1.71E+12,128,128,-1,-1,-1,-1,53.55366464,10.33126412,63.88492876,-605.0000721,-1,-1,-1,-1
1.71E+12,128,128,-1,-1,-1,-1,53.54653964,10.33013804,63.87667768,-605.0000721,-1,-1,-1,-1
1.71E+12,128,128,-1,-1,-1,-1,53.53953219,10.32905922,63.86859141,-605.0000721,-1,-1,-1,-1
1.71E+12,128,128,-1,-1,-1,-1,53.53264675,10.32802849,63.86067524,-605.0000721,-1,-1,-1,-1
1.71E+12,128,128,-1,-1,-1,-1,53.52588757,10.32704662,63.85293419,-605.0000721,-1,-1,-1,-1
1.71E+12,128,128,-1,-1,-1,-1,53.5192587,10.32611436,63.84537306,-605.0000721,-1,-1,-1,-1
1.71E+12,128,128,-1,-1,-1,-1,53.512764,10.32523243,63.83799643,-605.0000721,-1,-1,-1,-1
1.71E+12,128,128,-1,-1,-1,-1,53.50640713,10.32440152,63.83080865,-605.0000721,-1,-1,-1,-1
1.71E+12,128,128,-1,-1,-1,-1,53.50019153,10.32362226,63.82381379,-605.0000721,-1,-1,-1,-1
1.71E+12,128,128,-1,-1,-1,-1,53.49412037,10.32289527,63.81701564,-605.0000721,-1,-1,-1,-1
1.71E+12,128,128,-1,-1,-1,-1,53.48819656,10.32222111,63.81041767,-605.0000721,-1,-1,-1,-1
1.71E+12,128,128,-1,-1,-1,-1,53.48242274,10.32160034,63.80402308,-605.0000721,-1,-1,-1,-1
1.71E+12,128,128,-1,-1,-1,-1,53.47680127,10.32103343,63.7978347,-605.0000721,-1,-1,-1,-1
1.71E+12,128,128,-1,-1,-1,-1,53.47133426,10.32052079,63.79185505,-605.0000721,-1,-1,-1,-1
1.71E+12,128,128,-1,-1,-1,-1,53.46602359,10.3200628,63.78608639,-605.0000721,-1,-1,-1,-1
1.71E+12,128,128,-1,-1,-1,-1,53.46087085,10.31965976,63.78053061,-605.0000721,-1,-1,-1,-1
1.71E+12,128,128,-1,-1,-1,-1,53.45587735,10.31931195,63.7751893,-605.0000721,-1,-1,-1,-1
1.71E+12,128,128,-1,-1,-1,-1,53.45104419,10.31901961,63.7700638,-605.0000721,-1,-1,-1,-1
1.71E+12,128,128,-1,-1,-1,-1,53.44637223,10.31878299,63.76515522,-605.0000721,-1,-1,-1,-1
1.71E+12,128,128,-1,-1,-1,-1,53.44186207,10.3186023,63.76046437,-605.0000721,-1,-1,-1,-1
1.71E+12,128,128,-1,-1,-1,-1,53.43751405,10.31847768,63.75599173,-605.0000721,-1,-1,-1,-1
1.71E+12,128,128,-1,-1,-1,-1,53.43332822,10.31840928,63.75173751,-605.0000721,-1,-1,-1,-1
1.71E+12,128,128,-1,-1,-1,-1,53.42930437,10.31839726,63.74770164,-605.0000721,-1,-1,-1,-1
1.71E+12,128,128,-1,-1,-1,-1,53.42544206,10.31844177,63.74388383,-605.0000721,-1,-1,-1,-1
1.71E+12,128,128,-1,-1,-1,-1,53.42174066,10.31854295,63.74028361,-605.0000721,-1,-1,-1,-1
1.71E+12,128,128,-1,-1,-1,-1,53.41819931,10.31870097,63.73690027,-605.0000721,-1,-1,-1,-1
1.71E+12,128,128,-1,-1,-1,-1,53.41481682,10.31891596,63.73373278,-605.0000721,-1,-1,-1,-1
1.71E+12,128,128,-1,-1,-1,-1,53.41159176,10.31918802,63.73077977,-605.0000721,-1,-1,-1,-1
1.71E+12,128,128,-1,-1,-1,-1,53.40852239,10.31951714,63.72803953,-605.0000721,-1,-1,-1,-1
1.71E+12,128,128,-1,-1,-1,-1,53.40560675,10.31990326,63.72551001,-605.0000721,-1,-1,-1,-1
1.71E+12,128,128,-1,-1,-1,-1,53.40284269,10.32034626,63.72318895,-605.0000721,-1,-1,-1,-1
1.71E+12,128,128,-1,-1,-1,-1,53.40022794,10.32084602,63.72107396,-605.0000721,-1,-1,-1,-1
1.71E+12,128,128,-1,-1,-1,-1,53.39776006,10.32140237,63.71916243,-605.0000721,-1,-1,-1,-1
1.71E+12,128,128,-1,-1,-1,-1,53.39543639,10.32201515,63.71745154,-605.0000721,-1,-1,-1,-1
1.71E+12,128,128,-1,-1,-1,-1,53.39325408,10.32268414,63.71593823,-605.0000721,-1,-1,-1,-1
1.71E+12,128,128,-1,-1,-1,-1,53.39121003,10.32340911,63.71461914,-605.0000721,-1,-1,-1,-1
1.71E+12,128,128,-1,-1,-1,-1,53.38930088,10.32418976,63.71349065,-605.0000721,-1,-1,-1,-1
1.71E+12,128,128,-1,-1,-1,-1,53.38752306,10.32502578,63.71254884,-605.0000721,-1,-1,-1,-1
1.71E+12,128,128,-1,-1,-1,-1,53.3858728,10.32591682,63.71178961,-605.0000721,-1,-1,-1,-1
1.71E+12,128,128,-1,-1,-1,-1,53.38434614,10.3268625,63.71120864,-605.0000721,-1,-1,-1,-1
1.71E+12,128,128,-1,-1,-1,-1,53.38293902,10.3278624,63.71080142,-605.0000721,-1,-1,-1,-1
1.71E+12,128,128,-1,-1,-1,-1,53.38164725,10.32891606,63.71056331,-605.0000721,-1,-1,-1,-1
1.71E+12,128,128,-1,-1,-1,-1,53.38046654,10.33002295,63.7104895,-605.0000721,-1,-1,-1,-1
1.71E+12,128,128,-1,-1,-1,-1,53.37939248,10.33118257,63.71057505,-605.0000721,-1,-1,-1,-1
1.71E+12,128,128,-1,-1,-1,-1,53.37842053,10.33239432,63.71081485,-605.0000721,-1,-1,-1,-1
1.71E+12,128,128,-1,-1,-1,-1,53.37754602,10.33365761,63.71120363,-605.0000721,-1,-1,-1,-1
1.71E+12,128,128,-1,-1,-1,-1,53.37676416,10.33497179,63.71173595,-605.0000721,-1,-1,-1,-1
1.71E+12,128,128,-1,-1,-1,-1,53.37607008,10.33633619,63.71240627,-605.0000721,-1,-1,-1,-1
1.71E+12,128,128,-1,-1,-1,-1,53.37545883,10.33775012,63.71320895,-605.0000721,-1,-1,-1,-1
1.71E+12,128,128,-1,-1,-1,-1,53.37492546,10.33921285,63.71413831,-605.0000721,-1,-1,-1,-1
1.71E+12,128,128,-1,-1,-1,-1,53.37446503,10.34072358,63.71518861,-605.0000721,-1,-1,-1,-1
1.71E+12,128,128,-1,-1,-1,-1,53.37407259,10.34228147,63.71635406,-605.0000721,-1,-1,-1,-1
1.71E+12,128,128,-1,-1,-1,-1,53.37374321,10.34388564,63.71762885,-605.0000721,-1,-1,-1,-1
1.71E+12,128,128,-1,-1,-1,-1,53.37347196,10.34553513,63.71900709,-605.0000721,-1,-1,-1,-1
1.71E+12,128,128,-1,-1,-1,-1,53.37325389,10.34722896,63.72048285,-605.0000721,-1,-1,-1,-1
1.71E+12,128,128,-1,-1,-1,-1,53.37308399,10.3489661,63.72205009,-605.0000721,-1,-1,-1,-1
1.71E+12,128,128,-1,-1,-1,-1,53.37295726,10.35074547,63.72370273,-605.0000721,-1,-1,-1,-1
1.71E+12,128,128,-1,-1,-1,-1,53.37286876,10.35256593,63.72543469,-605.0000721,-1,-1,-1,-1
1.71E+12,128,128,-1,-1,-1,-1,53.37281357,10.3544263,63.72723987,-605.0000721,-1,-1,-1,-1
1.71E+12,128,128,-1,-1,-1,-1,53.37278679,10.35632532,63.72911212,-605.0000721,-1,-1,-1,-1
1.71E+12,128,128,-1,-1,-1,-1,53.37278355,10.35826174,63.73104529,-605.0000721,-1,-1,-1,-1
1.71E+12,128,128,-1,-1,-1,-1,53.37279899,10.36023426,63.73303325,-605.0000721,-1,-1,-1,-1
1.71E+12,128,128,-1,-1,-1,-1,53.37282826,10.36224154,63.7350698,-605.0000721,-1,-1,-1,-1
1.71E+12,128,128,-1,-1,-1,-1,53.37286655,10.3642822,63.73714875,-605.0000721,-1,-1,-1,-1
1.71E+12,128,128,-1,-1,-1,-1,53.37290917,10.36635474,63.73926392,-605.0000721,-1,-1,-1,-1
1.71E+12,128,128,-1,-1,-1,-1,53.37295155,10.36845765,63.7414092,-605.0000721,-1,-1,-1,-1
1.71E+12,128,128,-1,-1,-1,-1,53.37298924,10.37058935,63.74357858,-605.0000721,-1,-1,-1,-1
1.71E+12,128,128,-1,-1,-1,-1,53.37301791,10.37274826,63.74576616,-605.0000721,-1,-1,-1,-1
1.71E+12,128,128,-1,-1,-1,-1,53.37303337,10.37493273,63.7479661,-605.0000721,-1,-1,-1,-1
1.71E+12,128,128,-1,-1,-1,-1,53.37303149,10.37714107,63.75017257,-605.0000721,-1,-1,-1,-1
1.71E+12,128,128,-1,-1,-1,-1,53.37300825,10.37937152,63.75237976,-605.0000721,-1,-1,-1,-1
1.71E+12,128,128,-1,-1,-1,-1,53.37295967,10.38162227,63.75458194,-605.0000721,-1,-1,-1,-1
1.71E+12,128,128,-1,-1,-1,-1,53.37288194,10.38389149,63.75677343,-605.0000721,-1,-1,-1,-1
1.71E+12,128,128,-1,-1,-1,-1,53.37277142,10.38617734,63.75894876,-605.0000721,-1,-1,-1,-1
1.71E+12,128,128,-1,-1,-1,-1,53.37262467,10.38847794,63.76110261,-605.0000721,-1,-1,-1,-1
1.71E+12,128,128,-1,-1,-1,-1,53.37243839,10.39079139,63.76322979,-605.0000721,-1,-1,-1,-1
1.71E+12,128,128,-1,-1,-1,-1,53.37220946,10.39311581,63.76532527,-605.0000721,-1,-1,-1,-1
1.71E+12,128,128,-1,-1,-1,-1,53.37193487,10.39544929,63.76738416,-605.0000721,-1,-1,-1,-1
1.71E+12,128,128,-1,-1,-1,-1,53.37161179,10.39778987,63.76940166,-605.0000721,-1,-1,-1,-1
1.71E+12,128,128,-1,-1,-1,-1,53.37123757,10.40013554,63.77137311,-605.0000721,-1,-1,-1,-1
1.71E+12,128,128,-1,-1,-1,-1,53.37080976,10.40248422,63.77329399,-605.0000721,-1,-1,-1,-1
1.71E+12,128,128,-1,-1,-1,-1,53.37032609,10.40483384,63.77515993,-605.0000721,-1,-1,-1,-1
1.71E+12,128,128,-1,-1,-1,-1,53.36978448,10.40718227,63.77696675,-605.0000721,-1,-1,-1,-1
1.71E+12,128,128,-1,-1,-1,-1,53.36918302,10.40952743,63.77871045,-605.0000721,-1,-1,-1,-1
1.71E+12,128,128,-1,-1,-1,-1,53.36852002,10.41186718,63.7803872,-605.0000721,-1,-1,-1,-1
1.71E+12,128,128,-1,-1,-1,-1,53.36779395,10.4141994,63.78199334,-605.0000721,-1,-1,-1,-1
1.71E+12,128,128,-1,-1,-1,-1,53.36700346,10.41652197,63.78352543,-605.0000721,-1,-1,-1,-1
1.71E+12,128,128,-1,-1,-1,-1,53.36614739,10.41883277,63.78498016,-605.0000721,-1,-1,-1,-1
1.71E+12,128,128,-1,-1,-1,-1,53.36522476,10.42112967,63.78635443,-605.0000721,-1,-1,-1,-1
1.71E+12,128,128,-1,-1,-1,-1,53.36423476,10.42341055,63.78764531,-605.0000721,-1,-1,-1,-1
1.71E+12,128,128,-1,-1,-1,-1,53.36317675,10.42567333,63.78885007,-605.0000721,-1,-1,-1,-1
1.71E+12,128,128,-1,-1,-1,-1,53.3620503,10.42791592,63.78996622,-605.0000721,-1,-1,-1,-1
1.71E+12,128,128,-1,-1,-1,-1,53.3608552,10.43013628,63.79099148,-605.0000721,-1,-1,-1,-1
1.71E+12,128,128,-1,-1,-1,-1,53.3595914,10.43233242,63.79192382,-605.0000721,-1,-1,-1,-1
1.71E+12,128,128,-1,-1,-1,-1,53.358259,10.43450241,63.79276141,-605.0000721,-1,-1,-1,-1
1.71E+12,128,128,-1,-1,-1,-1,53.35685822,10.43664441,63.79350263,-605.0000721,-1,-1,-1,-1
1.71E+12,128,128,-1,-1,-1,-1,53.35538941,10.43875664,63.79414605,-605.0000721,-1,-1,-1,-1
1.71E+12,128,128,-1,-1,-1,-1,53.35385313,10.44083731,63.79469044,-605.0000721,-1,-1,-1,-1
1.71E+12,128,128,-1,-1,-1,-1,53.3522501,10.44288466,63.79513476,-605.0000721,-1,-1,-1,-1
1.71E+12,128,128,-1,-1,-1,-1,53.35058129,10.44489695,63.79547823,-605.0000721,-1,-1,-1,-1
1.71E+12,128,128,-1,-1,-1,-1,53.34884782,10.44687246,63.79572028,-605.0000721,-1,-1,-1,-1
1.71E+12,128,128,-1,-1,-1,-1,53.34705099,10.4488096,63.79586059,-605.0000721,-1,-1,-1,-1
1.71E+12,128,128,-1,-1,-1,-1,53.34519221,10.45070686,63.79589907,-605.0000721,-1,-1,-1,-1
1.71E+12,128,128,-1,-1,-1,-1,53.34327302,10.45256281,63.79583583,-605.0000721,-1,-1,-1,-1
1.71E+12,128,128,-1,-1,-1,-1,53.34129505,10.45437611,63.79567116,-605.0000721,-1,-1,-1,-1
1.71E+12,128,128,-1,-1,-1,-1,53.33926007,10.45614548,63.79540555,-605.0000721,-1,-1,-1,-1
1.71E+12,128,128,-1,-1,-1,-1,53.33716995,10.45786972,63.79503967,-605.0000721,-1,-1,-1,-1
1.71E+12,128,128,-1,-1,-1,-1,53.3350267,10.45954769,63.79457439,-605.0000721,-1,-1,-1,-1
1.71E+12,128,128,-1,-1,-1,-1,53.33283247,10.46117834,63.7940108,-605.0000721,-1,-1,-1,-1
1.71E+12,128,128,-1,-1,-1,-1,53.33058949,10.46276067,63.79335017,-605.0000721,-1,-1,-1,-1
1.71E+12,128,128,-1,-1,-1,-1,53.32830015,10.46429379,63.79259394,-605.0000721,-1,-1,-1,-1
1.71E+12,128,128,-1,-1,-1,-1,53.3259669,10.46577684,63.79174373,-605.0000721,-1,-1,-1,-1
1.71E+12,128,128,-1,-1,-1,-1,53.32359227,10.4672089,63.79080117,-605.0000721,-1,-1,-1,-1
1.71E+12,128,128,-1,-1,-1,-1,53.32117889,10.46858898,63.78976787,-605.0000721,-1,-1,-1,-1
1.71E+12,128,128,-1,-1,-1,-1,53.31872953,10.46991591,63.78864544,-605.0000721,-1,-1,-1,-1
1.71E+12,128,128,-1,-1,-1,-1,53.31624716,10.47118831,63.78743547,-605.0000721,-1,-1,-1,-1
1.71E+12,128,128,-1,-1,-1,-1,53.31373498,10.47240462,63.78613959,-605.0000721,-1,-1,-1,-1
1.71E+12,128,128,-1,-1,-1,-1,53.31119634,10.47356325,63.78475959,-605.0000721,-1,-1,-1,-1
1.71E+12,128,128,-1,-1,-1,-1,53.30863478,10.47466263,63.78329741,-605.0000721,-1,-1,-1,-1
1.71E+12,128,128,-1,-1,-1,-1,53.30605403,10.47570117,63.7817552,-605.0000721,-1,-1,-1,-1
1.71E+12,128,128,-1,-1,-1,-1,53.30345796,10.47667733,63.78013528,-605.0000721,-1,-1,-1,-1
1.71E+12,128,128,-1,-1,-1,-1,53.30085058,10.47758964,63.77844022,-605.0000721,-1,-1,-1,-1
1.71E+12,128,128,-1,-1,-1,-1,53.29823611,10.4784368,63.77667291,-605.0000721,-1,-1,-1,-1
1.71E+12,128,128,-1,-1,-1,-1,53.29561892,10.47921774,63.77483666,-605.0000721,-1,-1,-1,-1
1.71E+12,128,128,-1,-1,-1,-1,53.29300355,10.47993183,63.77293538,-605.0000721,-1,-1,-1,-1
1.71E+12,128,128,-1,-1,-1,-1,53.29039475,10.48057877,63.77097352,-605.0000721,-1,-1,-1,-1
1.71E+12,128,128,-1,-1,-1,-1,53.28779757,10.48115857,63.76895615,-605.0000721,-1,-1,-1,-1
1.71E+12,128,128,-1,-1,-1,-1,53.28521703,10.48167196,63.76688899,-605.0000721,-1,-1,-1,-1
1.71E+12,128,128,-1,-1,-1,-1,53.2826577,10.48212082,63.76477852,-605.0000721,-1,-1,-1,-1
1.71E+12,128,128,-1,-1,-1,-1,53.28012351,10.4825085,63.76263201,-605.0000721,-1,-1,-1,-1
1.71E+12,128,128,-1,-1,-1,-1,53.27761752,10.48283993,63.76045744,-605.0000721,-1,-1,-1,-1
1.71E+12,128,128,-1,-1,-1,-1,53.27514227,10.48312095,63.75826322,-605.0000721,-1,-1,-1,-1
1.71E+12,128,128,-1,-1,-1,-1,53.2727001,10.4833574,63.7560575,-605.0000721,-1,-1,-1,-1
1.71E+12,128,128,-1,-1,-1,-1,53.27029329,10.48355454,63.75384783,-605.0000721,-1,-1,-1,-1
1.71E+12,128,128,-1,-1,-1,-1,53.26792412,10.48371706,63.75164118,-605.0000721,-1,-1,-1,-1
1.71E+12,128,128,-1,-1,-1,-1,53.26559469,10.4838491,63.74944379,-605.0000721,-1,-1,-1,-1
1.71E+12,128,128,-1,-1,-1,-1,53.26330688,10.48395451,63.74726139,-605.0000721,-1,-1,-1,-1
1.71E+12,128,128,-1,-1,-1,-1,53.26106235,10.48403707,63.74509943,-605.0000721,-1,-1,-1,-1
1.71E+12,128,128,-1,-1,-1,-1,53.25886263,10.48410037,63.742963,-605.0000721,-1,-1,-1,-1
1.71E+12,128,128,-1,-1,-1,-1,53.25670923,10.48414774,63.74085698,-605.0000721,-1,-1,-1,-1
1.71E+12,128,128,-1,-1,-1,-1,53.25460362,10.48418248,63.7387861,-605.0000721,-1,-1,-1,-1
1.71E+12,128,128,-1,-1,-1,-1,53.25254714,10.48420786,63.73675499,-605.0000721,-1,-1,-1,-1
1.71E+12,128,128,-1,-1,-1,-1,53.25054105,10.48422699,63.73476804,-605.0000721,-1,-1,-1,-1
1.71E+12,128,128,-1,-1,-1,-1,53.24858655,10.48424294,63.73282949,-605.0000721,-1,-1,-1,-1
1.71E+12,128,128,-1,-1,-1,-1,53.24668491,10.48425869,63.7309436,-605.0000721,-1,-1,-1,-1
1.71E+12,128,128,-1,-1,-1,-1,53.24483749,10.48427715,63.72911464,-605.0000721,-1,-1,-1,-1
1.71E+12,128,128,-1,-1,-1,-1,53.24304581,10.48430117,63.72734697,-605.0000721,-1,-1,-1,-1
1.71E+12,128,128,-1,-1,-1,-1,53.24131152,10.48433359,63.7256451,-605.0000721,-1,-1,-1,-1
1.71E+12,128,128,-1,-1,-1,-1,53.23963627,10.48437731,63.72401358,-605.0000721,-1,-1,-1,-1
1.71E+12,128,128,-1,-1,-1,-1,53.23802158,10.48443539,63.72245697,-605.0000721,-1,-1,-1,-1
1.71E+12,128,128,-1,-1,-1,-1,53.23646882,10.48451099,63.72097981,-605.0000721,-1,-1,-1,-1
1.71E+12,128,128,-1,-1,-1,-1,53.23497924,10.48460739,63.71958663,-605.0000721,-1,-1,-1,-1
1.71E+12,128,128,-1,-1,-1,-1,53.23355391,10.48472795,63.71828186,-605.0000721,-1,-1,-1,-1
1.71E+12,128,128,-1,-1,-1,-1,53.23219369,10.48487618,63.71706987,-605.0000721,-1,-1,-1,-1
1.71E+12,128,128,-1,-1,-1,-1,53.23089914,10.48505569,63.71595483,-605.0000721,-1,-1,-1,-1
1.71E+12,128,128,-1,-1,-1,-1,53.22967046,10.48527024,63.7149407,-605.0000721,-1,-1,-1,-1
1.71E+12,128,128,-1,-1,-1,-1,53.22850754,10.48552367,63.7140312,-605.0000721,-1,-1,-1,-1
1.71E+12,128,128,-1,-1,-1,-1,53.22741001,10.48581988,63.7132299,-605.0000721,-1,-1,-1,-1
1.71E+12,128,128,-1,-1,-1,-1,53.22637733,10.4861628,63.71254013,-605.0000721,-1,-1,-1,-1
1.71E+12,128,128,-1,-1,-1,-1,53.2254088,10.48655629,63.71196509,-605.0000721,-1,-1,-1,-1
1.71E+12,128,128,-1,-1,-1,-1,53.22450363,10.48700413,63.71150776,-605.0000721,-1,-1,-1,-1
1.71E+12,128,128,-1,-1,-1,-1,53.22366097,10.48751002,63.71117098,-605.0000721,-1,-1,-1,-1
1.71E+12,128,128,-1,-1,-1,-1,53.22287984,10.48807755,63.71095739,-605.0000721,-1,-1,-1,-1
1.71E+12,128,128,-1,-1,-1,-1,53.22215912,10.48871024,63.71086936,-605.0000721,-1,-1,-1,-1
1.71E+12,128,128,-1,-1,-1,-1,53.22149753,10.48941147,63.710909,-605.0000721,-1,-1,-1,-1
1.71E+12,128,128,-1,-1,-1,-1,53.22089358,10.49018451,63.71107809,-605.0000721,-1,-1,-1,-1
1.71E+12,128,128,-1,-1,-1,-1,53.22034569,10.49103244,63.71137813,-605.0000721,-1,-1,-1,-1
1.71E+12,128,128,-1,-1,-1,-1,53.21985212,10.49195818,63.71181029,-605.0000721,-1,-1,-1,-1
1.71E+12,128,128,-1,-1,-1,-1,53.21941103,10.49296445,63.71237548,-605.0000721,-1,-1,-1,-1
1.71E+12,128,128,-1,-1,-1,-1,53.21902052,10.49405379,63.71307431,-605.0000721,-1,-1,-1,-1
1.71E+12,128,128,-1,-1,-1,-1,53.21867861,10.49522847,63.71390708,-605.0000721,-1,-1,-1,-1
1.71E+12,128,128,-1,-1,-1,-1,53.21838326,10.49649054,63.7148738,-605.0000721,-1,-1,-1,-1
1.71E+12,128,128,-1,-1,-1,-1,53.21813231,10.49784182,63.71597414,-605.0000721,-1,-1,-1,-1
1.71E+12,128,128,-1,-1,-1,-1,53.21792351,10.49928388,63.71720739,-605.0000721,-1,-1,-1,-1
1.71E+12,128,128,-1,-1,-1,-1,53.21775453,10.50081802,63.71857256,-605.0000721,-1,-1,-1,-1
1.71E+12,128,128,-1,-1,-1,-1,53.21762307,10.50244527,63.72006834,-605.0000721,-1,-1,-1,-1
1.71E+12,128,128,-1,-1,-1,-1,53.21752684,10.50416635,63.72169319,-605.0000721,-1,-1,-1,-1
1.71E+12,128,128,-1,-1,-1,-1,53.21746357,10.50598169,63.72344526,-605.0000721,-1,-1,-1,-1
1.71E+12,128,128,-1,-1,-1,-1,53.21743096,10.50789141,63.72532238,-605.0000721,-1,-1,-1,-1
1.71E+12,128,128,-1,-1,-1,-1,53.21742672,10.50989536,63.72732208,-605.0000721,-1,-1,-1,-1
1.71E+12,128,128,-1,-1,-1,-1,53.21744853,10.51199306,63.72944159,-605.0000721,-1,-1,-1,-1
1.71E+12,128,128,-1,-1,-1,-1,53.21749413,10.51418374,63.73167787,-605.0000721,-1,-1,-1,-1
1.71E+12,128,128,-1,-1,-1,-1,53.21756132,10.5164663,63.73402762,-605.0000721,-1,-1,-1,-1
1.71E+12,128,128,-1,-1,-1,-1,53.217648,10.51883931,63.73648731,-605.0000721,-1,-1,-1,-1
1.71E+12,128,128,-1,-1,-1,-1,53.21775215,10.52130097,63.73905312,-605.0000721,-1,-1,-1,-1
1.71E+12,128,128,-1,-1,-1,-1,53.21787186,10.52384915,63.74172101,-605.0000721,-1,-1,-1,-1
1.71E+12,128,128,-1,-1,-1,-1,53.21800529,10.52648139,63.74448668,-605.0000721,-1,-1,-1,-1
1.71E+12,128,128,-1,-1,-1,-1,53.21815074,10.5291949,63.74734564,-605.0000721,-1,-1,-1,-1
1.71E+12,128,128,-1,-1,-1,-1,53.21830658,10.53198662,63.7502932,-605.0000721,-1,-1,-1,-1
1.71E+12,128,128,-1,-1,-1,-1,53.21847132,10.53485314,63.75332446,-605.0000721,-1,-1,-1,-1
1.71E+12,128,128,-1,-1,-1,-1,53.21864357,10.53779078,63.75643435,-605.0000721,-1,-1,-1,-1
1.71E+12,128,128,-1,-1,-1,-1,53.21882208,10.54079558,63.75961766,-605.0000721,-1,-1,-1,-1
1.71E+12,128,128,-1,-1,-1,-1,53.21900577,10.54386328,63.76286905,-605.0000721,-1,-1,-1,-1
1.71E+12,128,128,-1,-1,-1,-1,53.2191937,10.54698939,63.76618308,-605.0000721,-1,-1,-1,-1
1.71E+12,128,128,-1,-1,-1,-1,53.21938508,10.55016917,63.76955425,-605.0000721,-1,-1,-1,-1
1.71E+12,128,128,-1,-1,-1,-1,53.21957934,10.55339763,63.77297698,-605.0000721,-1,-1,-1,-1
1.71E+12,128,128,-1,-1,-1,-1,53.21977607,10.55666953,63.7764456,-605.0000721,-1,-1,-1,-1
1.71E+12,128,128,-1,-1,-1,-1,53.21997502,10.55997938,63.77995439,-605.0000721,-1,-1,-1,-1
1.71E+12,128,128,-1,-1,-1,-1,53.22017608,10.5633215,63.78349757,-605.0000721,-1,-1,-1,-1
1.71E+12,128,128,-1,-1,-1,-1,53.2203793,10.56669003,63.78706933,-605.0000721,-1,-1,-1,-1
1.71E+12,128,128,-1,-1,-1,-1,53.22058493,10.57007892,63.79066385,-605.0000721,-1,-1,-1,-1
1.71E+12,128,128,-1,-1,-1,-1,53.22079338,10.573482,63.79427538,-605.0000721,-1,-1,-1,-1
1.71E+12,128,128,-1,-1,-1,-1,53.22100526,10.57689294,63.7978982,-605.0000721,-1,-1,-1,-1
1.71E+12,128,128,-1,-1,-1,-1,53.22122139,10.58030531,63.80152669,-605.0000721,-1,-1,-1,-1
1.71E+12,128,128,-1,-1,-1,-1,53.22144274,10.58371255,63.80515528,-605.0000721,-1,-1,-1,-1
1.71E+12,128,128,-1,-1,-1,-1,53.22167049,10.58710802,63.80877851,-605.0000721,-1,-1,-1,-1
1.71E+12,128,128,-1,-1,-1,-1,53.221906,10.59048501,63.81239102,-605.0000721,-1,-1,-1,-1
1.71E+12,128,128,-1,-1,-1,-1,53.22215088,10.59383671,63.81598759,-605.0000721,-1,-1,-1,-1
1.71E+12,128,128,-1,-1,-1,-1,53.22240689,10.59715631,63.8195632,-605.0000721,-1,-1,-1,-1
1.71E+12,128,128,-1,-1,-1,-1,53.22267599,10.60043699,63.82311298,-605.0000721,-1,-1,-1,-1
1.71E+12,128,128,-1,-1,-1,-1,53.22296032,10.60367194,63.82663227,-605.0000721,-1,-1,-1,-1
1.71E+12,128,128,-1,-1,-1,-1,53.22326218,10.60685442,63.8301166,-605.0000721,-1,-1,-1,-1
1.71E+12,128,128,-1,-1,-1,-1,53.22358399,10.60997776,63.83356175,-605.0000721,-1,-1,-1,-1
1.71E+12,128,128,-1,-1,-1,-1,53.22392832,10.61303541,63.83696373,-605.0000721,-1,-1,-1,-1
1.71E+12,128,128,-1,-1,-1,-1,53.22429787,10.6160209,63.84031877,-605.0000721,-1,-1,-1,-1
1.71E+12,128,128,-1,-1,-1,-1,53.22469543,10.61892791,63.84362334,-605.0000721,-1,-1,-1,-1
1.71E+12,128,128,-1,-1,-1,-1,53.2251239,10.62175024,63.84687414,-605.0000721,-1,-1,-1,-1
1.71E+12,128,128,-1,-1,-1,-1,53.22558631,10.6244818,63.85006811,-605.0000721,-1,-1,-1,-1
1.71E+12,128,128,-1,-1,-1,-1,53.2260858,10.62711667,63.85320247,-605.0000721,-1,-1,-1,-1
1.71E+12,128,128,-1,-1,-1,-1,53.22662559,10.62964914,63.85627473,-605.0000721,-1,-1,-1,-1
1.71E+12,128,128,-1,-1,-1,-1,53.22720895,10.63207373,63.85928268,-605.0000721,-1,-1,-1,-1
1.71E+12,128,128,-1,-1,-1,-1,53.22783921,10.63438523,63.86222444,-605.0000721,-1,-1,-1,-1
1.71E+12,128,128,-1,-1,-1,-1,53.22851971,10.63657861,63.86509832,-605.0000721,-1,-1,-1,-1
1.71E+12,128,128,-1,-1,-1,-1,53.22925381,10.63864914,63.86790295,-605.0000721,-1,-1,-1,-1
1.71E+12,128,128,-1,-1,-1,-1,53.23004488,10.64059233,63.87063721,-605.0000721,-1,-1,-1,-1
1.71E+12,128,128,-1,-1,-1,-1,53.2308963,10.64240397,63.87330027,-605.0000721,-1,-1,-1,-1
1.71E+12,128,128,-1,-1,-1,-1,53.23181146,10.64408017,63.87589163,-605.0000721,-1,-1,-1,-1
1.71E+12,128,128,-1,-1,-1,-1,53.23279373,10.64561735,63.87841108,-605.0000721,-1,-1,-1,-1
1.71E+12,128,128,-1,-1,-1,-1,53.23384648,10.6470123,63.88085878,-605.0000721,-1,-1,-1,-1
1.71E+12,128,128,-1,-1,-1,-1,53.23497307,10.64826215,63.88323522,-605.0000721,-1,-1,-1,-1
1.71E+12,128,128,-1,-1,-1,-1,53.23617683,10.64936438,63.88554121,-605.0000721,-1,-1,-1,-1
1.71E+12,128,128,-1,-1,-1,-1,53.23746108,10.65031679,63.88777787,-605.0000721,-1,-1,-1,-1
1.71E+12,128,128,-1,-1,-1,-1,53.23882906,10.65111758,63.88994665,-605.0000721,-1,-1,-1,-1
1.71E+12,128,128,-1,-1,-1,-1,53.24028395,10.6517653,63.89204925,-605.0000721,-1,-1,-1,-1
1.71E+12,128,128,-1,-1,-1,-1,53.24182882,10.65225889,63.89408771,-605.0000721,-1,-1,-1,-1
1.71E+12,128,128,-1,-1,-1,-1,53.24346663,10.6525977,63.89606432,-605.0000721,-1,-1,-1,-1
1.71E+12,128,128,-1,-1,-1,-1,53.24520021,10.65278149,63.89798171,-605.0000721,-1,-1,-1,-1
1.71E+12,128,128,-1,-1,-1,-1,53.24703231,10.65281048,63.89984279,-605.0000721,-1,-1,-1,-1
1.71E+12,128,128,-1,-1,-1,-1,53.24896551,10.65268527,63.90165078,-605.0000721,-1,-1,-1,-1
1.71E+12,128,128,-1,-1,-1,-1,53.25100226,10.65240689,63.90340915,-605.0000721,-1,-1,-1,-1
1.71E+12,128,128,-1,-1,-1,-1,53.25314481,10.65197676,63.90512158,-605.0000721,-1,-1,-1,-1
1.71E+12,128,128,-1,-1,-1,-1,53.25539526,10.65139669,63.90679195,-605.0000721,-1,-1,-1,-1
1.71E+12,128,128,-1,-1,-1,-1,53.2577555,10.65066885,63.90842435,-605.0000721,-1,-1,-1,-1
1.71E+12,128,128,-1,-1,-1,-1,53.26022726,10.64979578,63.91002303,-605.0000721,-1,-1,-1,-1
1.71E+12,128,128,-1,-1,-1,-1,53.26281217,10.64878034,63.91159252,-605.0000721,-1,-1,-1,-1
1.71E+12,128,128,-1,-1,-1,-1,53.26551172,10.64762578,63.9131375,-605.0000721,-1,-1,-1,-1
1.71E+12,128,128,-1,-1,-1,-1,53.2683272,10.64633565,63.91466286,-605.0000721,-1,-1,-1,-1
1.71E+12,128,128,-1,-1,-1,-1,53.27125971,10.64491385,63.91617356,-605.0000721,-1,-1,-1,-1
1.71E+12,128,128,-1,-1,-1,-1,53.27431006,10.64336458,63.91767465,-605.0000721,-1,-1,-1,-1
1.71E+12,128,128,-1,-1,-1,-1,53.27747887,10.64169236,63.91917124,-605.0000721,-1,-1,-1,-1
1.71E+12,128,128,-1,-1,-1,-1,53.28076649,10.63990201,63.9206685,-605.0000721,-1,-1,-1,-1
1.71E+12,128,128,-1,-1,-1,-1,53.28417308,10.63799862,63.9221717,-605.0000721,-1,-1,-1,-1
1.71E+12,128,128,-1,-1,-1,-1,53.28769861,10.63598757,63.92368618,-605.0000721,-1,-1,-1,-1
1.71E+12,128,128,-1,-1,-1,-1,53.29134282,10.63387452,63.92521734,-605.0000721,-1,-1,-1,-1
1.71E+12,128,128,-1,-1,-1,-1,53.29510525,10.63166536,63.92677062,-605.0000721,-1,-1,-1,-1
1.71E+12,128,128,-1,-1,-1,-1,53.29898526,10.62936621,63.92835146,-605.0000721,-1,-1,-1,-1
1.71E+12,128,128,-1,-1,-1,-1,53.30298196,10.62698334,63.9299653,-605.0000721,-1,-1,-1,-1
1.71E+12,128,128,-1,-1,-1,-1,53.30709424,10.62452321,63.93161745,-605.0000721,-1,-1,-1,-1
1.71E+12,128,128,-1,-1,-1,-1,53.31132075,10.62199244,63.93331319,-605.0000721,-1,-1,-1,-1
1.71E+12,128,128,-1,-1,-1,-1,53.31565992,10.61939773,63.93505765,-605.0000721,-1,-1,-1,-1
1.71E+12,128,128,-1,-1,-1,-1,53.32010998,10.61674588,63.93685586,-605.0000721,-1,-1,-1,-1
1.71E+12,128,128,-1,-1,-1,-1,53.32466893,10.61404377,63.9387127,-605.0000721,-1,-1,-1,-1
1.71E+12,128,128,-1,-1,-1,-1,53.3293346,10.61129832,63.94063291,-605.0000721,-1,-1,-1,-1
1.71E+12,128,128,-1,-1,-1,-1,53.33410461,10.60851648,63.94262109,-605.0000721,-1,-1,-1,-1
1.71E+12,128,128,-1,-1,-1,-1,53.33897638,10.60570528,63.94468166,-605.0000721,-1,-1,-1,-1
1.71E+12,128,128,-1,-1,-1,-1,53.34394715,10.60287172,63.94681887,-605.0000721,-1,-1,-1,-1
1.71E+12,128,128,-1,-1,-1,-1,53.34901395,10.60002277,63.94903672,-605.0000721,-1,-1,-1,-1
1.71E+12,128,128,-1,-1,-1,-1,53.35417362,10.59716534,63.95133896,-605.0000721,-1,-1,-1,-1
1.71E+12,128,128,-1,-1,-1,-1,53.35942279,10.59430629,63.95372908,-605.0000721,-1,-1,-1,-1
1.71E+12,128,128,-1,-1,-1,-1,53.36475792,10.59145242,63.95621035,-605.0000721,-1,-1,-1,-1
1.71E+12,128,128,-1,-1,-1,-1,53.37017534,10.58861042,63.95878577,-605.0000721,-1,-1,-1,-1
1.71E+12,128,128,-1,-1,-1,-1,53.37567122,10.58578685,63.96145807,-605.0000721,-1,-1,-1,-1
1.71E+12,128,128,-1,-1,-1,-1,53.38124157,10.58298813,63.96422971,-605.0000721,-1,-1,-1,-1
1.71E+12,128,128,-1,-1,-1,-1,53.3868823,10.58022053,63.96710283,-605.0000721,-1,-1,-1,-1
1.71E+12,128,128,-1,-1,-1,-1,53.39258915,10.57749008,63.97007923,-605.0000721,-1,-1,-1,-1
1.71E+12,128,128,-1,-1,-1,-1,53.39835772,10.57480266,63.97316038,-605.0000721,-1,-1,-1,-1
1.71E+12,128,128,-1,-1,-1,-1,53.40418354,10.57216393,63.97634747,-605.0000721,-1,-1,-1,-1
1.71E+12,128,128,-1,-1,-1,-1,53.410062,10.56957932,63.97964133,-605.0000721,-1,-1,-1,-1
1.71E+12,128,128,-1,-1,-1,-1,53.41598842,10.56705403,63.98304245,-605.0000721,-1,-1,-1,-1
1.71E+12,128,128,-1,-1,-1,-1,53.421958,10.564593,63.986551,-605.0000721,-1,-1,-1,-1
1.71E+12,128,128,-1,-1,-1,-1,53.42796585,10.56220095,63.9901668,-605.0000721,-1,-1,-1,-1
1.71E+12,128,128,-1,-1,-1,-1,53.43400701,10.55988237,63.99388939,-605.0000721,-1,-1,-1,-1
1.71E+12,128,128,-1,-1,-1,-1,53.4400765,10.55764144,63.99771794,-605.0000721,-1,-1,-1,-1
