Shimmer_89F4_TimestampSync_Unix_CAL,Shimmer_89F4_ECG_EMG_Status1_LPF_CAL,Shimmer_89F4_ECG_EMG_Status2_LPF_CAL,Shimmer_89F4_ECG_IBI_LA_RA_LPF_CAL,Shimmer_89F4_ECG_IBI_LL_LA_LPF_CAL,Shimmer_89F4_ECG_IBI_LL_RA_LPF_CAL,Shimmer_89F4_ECG_IBI_Vx_RL_LPF_CAL,Shimmer_89F4_ECG_LA_RA_24BIT_LPF_CAL,Shimmer_89F4_ECG_LL_LA_24BIT_LPF_CAL,Shimmer_89F4_ECG_LL_RA_24BIT_LPF_CAL,Shimmer_89F4_ECG_Vx_RL_24BIT_LPF_CAL,Shimmer_89F4_ECGtoHR_LA_RA_LPF_CAL,Shimmer_89F4_ECGtoHR_LL_LA_LPF_CAL,Shimmer_89F4_ECGtoHR_LL_RA_LPF_CAL,Shimmer_89F4_ECGtoHR_Vx_RL_LPF_CAL
1.71E+12,128,128,-1,-1,-1,-1,-9.67598196,8.985200999,-0.69078096,-9.069294819,112.5274725,112.1167883,112.5274725,134.7368421
1.71E+12,128,128,-1,-1,-1,-1,-9.67598196,8.985200999,-0.69078096,-9.069294819,112.5274725,112.1167883,112.5274725,134.7368421
1.71E+12,128,128,-1,-1,-1,-1,-9.675981964,8.98520097,-0.690780994,-9.069294817,112.5274725,112.1167883,112.5274725,134.7368421
1.71E+12,128,128,-1,-1,-1,-1,-9.675981987,8.985200824,-0.690781163,-9.069294829,112.5274725,112.1167883,112.5274725,134.7368421
1.71E+12,128,128,-1,-1,-1,-1,-9.675982047,8.985200436,-0.690781611,-9.069294885,112.5274725,112.1167883,112.5274725,134.7368421
1.71E+12,128,128,-1,-1,-1,-1,-9.675982157,8.985199659,-0.690782498,-9.069295016,112.5274725,112.1167883,112.5274725,134.7368421
1.71E+12,128,128,-1,-1,-1,-1,-9.675982324,8.98519834,-0.690783984,-9.069295255,112.5274725,112.1167883,112.5274725,134.7368421
1.71E+12,128,128,-1,-1,-1,-1,-9.67598253,8.985196319,-0.690786211,-9.069295638,112.5274725,112.1167883,112.5274725,134.7368421
1.71E+12,128,128,-1,-1,-1,-1,-9.675982731,8.985193432,-0.6907893,-9.069296208,112.5274725,112.1167883,112.5274725,134.7368421
1.71E+12,128,128,-1,-1,-1,-1,-9.675982869,8.985189479,-0.69079339,-9.069297018,112.5274725,112.1167883,112.5274725,134.7368421
1.71E+12,128,128,-1,-1,-1,-1,-9.675982889,8.985184258,-0.690798631,-9.069298109,112.5274725,112.1167883,112.5274725,134.7368421
1.71E+12,128,128,-1,-1,-1,-1,-9.675982758,8.985177564,-0.690805194,-9.069299529,112.5274725,112.1167883,112.5274725,134.7368421
1.71E+12,128,128,-1,-1,-1,-1,-9.67598246,8.985169164,-0.690813296,-9.069301335,112.5274725,112.1167883,112.5274725,134.7368421
1.71E+12,128,128,-1,-1,-1,-1,-9.675981969,8.98515878,-0.690823189,-9.069303593,112.5274725,112.1167883,112.5274725,134.7368421
1.71E+12,128,128,-1,-1,-1,-1,-9.675981245,8.985146114,-0.690835132,-9.069306357,112.5274725,112.1167883,112.5274725,134.7368421
1.71E+12,128,128,-1,-1,-1,-1,-9.675980231,8.985130862,-0.690849369,-9.069309655,112.5274725,112.1167883,112.5274725,134.7368421
1.71E+12,128,128,-1,-1,-1,-1,-9.675978835,8.985112704,-0.690866131,-9.069313531,112.5274725,112.1167883,112.5274725,134.7368421
1.71E+12,128,128,-1,-1,-1,-1,-9.675976954,8.985091291,-0.690885663,-9.069318044,112.5274725,112.1167883,112.5274725,134.7368421
1.71E+12,128,128,-1,-1,-1,-1,-9.675974494,8.98506625,-0.690908243,-9.069323273,112.5274725,112.1167883,112.5274725,134.7368421
1.71E+12,128,128,-1,-1,-1,-1,-9.675971365,8.985037178,-0.690934187,-9.069329313,112.5274725,112.1167883,112.5274725,134.7368421
1.71E+12,128,128,-1,-1,-1,-1,-9.675967484,8.985003629,-0.690963856,-9.069336253,112.5274725,112.1167883,112.5274725,134.7368421
1.71E+12,128,128,-1,-1,-1,-1,-9.67596277,8.984965127,-0.690997642,-9.069344212,112.5274725,112.1167883,112.5274725,134.7368421
1.71E+12,128,128,-1,-1,-1,-1,-9.675957119,8.984921174,-0.691035945,-9.069353323,112.5274725,112.1167883,112.5274725,134.7368421
1.71E+12,128,128,-1,-1,-1,-1,-9.675950408,8.984871249,-0.69107916,-9.069363713,112.5274725,112.1167883,112.5274725,134.7368421
1.71E+12,128,128,-1,-1,-1,-1,-9.675942494,8.984814816,-0.691127678,-9.069375533,112.5274725,112.1167883,112.5274725,134.7368421
1.71E+12,128,128,-1,-1,-1,-1,-9.675933204,8.984751326,-0.691181878,-9.069388957,112.5274725,112.1167883,112.5274725,134.7368421
1.71E+12,128,128,-1,-1,-1,-1,-9.675922357,8.984680209,-0.691242148,-9.069404156,112.5274725,112.1167883,112.5274725,134.7368421
1.71E+12,128,128,-1,-1,-1,-1,-9.675909769,8.984600848,-0.691308921,-9.069421285,112.5274725,112.1167883,112.5274725,134.7368421
1.71E+12,128,128,-1,-1,-1,-1,-9.675895263,8.984512579,-0.691382684,-9.069440527,112.5274725,112.1167883,112.5274725,134.7368421
1.71E+12,128,128,-1,-1,-1,-1,-9.675878646,8.984414701,-0.691463945,-9.069462081,112.5274725,112.1167883,112.5274725,134.7368421
1.71E+12,128,128,-1,-1,-1,-1,-9.675859704,8.98430649,-0.691553214,-9.069486112,112.5274725,112.1167883,112.5274725,134.7368421
1.71E+12,128,128,-1,-1,-1,-1,-9.675838208,8.984187201,-0.691651007,-9.069512818,112.5274725,112.1167883,112.5274725,134.7368421
1.71E+12,128,128,-1,-1,-1,-1,-9.675813906,8.98405608,-0.691757826,-9.069542429,112.5274725,112.1167883,112.5274725,134.7368421
1.71E+12,128,128,-1,-1,-1,-1,-9.675786533,8.983912363,-0.69187417,-9.06957517,112.5274725,112.1167883,112.5274725,134.7368421
1.71E+12,128,128,-1,-1,-1,-1,-9.675755801,8.983755264,-0.692000538,-9.069611296,112.5274725,112.1167883,112.5274725,134.7368421
1.71E+12,128,128,-1,-1,-1,-1,-9.675721395,8.983583947,-0.692137448,-9.069651094,112.5274725,112.1167883,112.5274725,134.7368421
1.71E+12,128,128,-1,-1,-1,-1,-9.675683,8.983397523,-0.692285477,-9.069694854,112.5274725,112.1167883,112.5274725,134.7368421
1.71E+12,128,128,-1,-1,-1,-1,-9.675640309,8.983195066,-0.692445244,-9.069742859,112.5274725,112.1167883,112.5274725,134.7368421
1.71E+12,128,128,-1,-1,-1,-1,-9.675593013,8.982975623,-0.69261739,-9.069795424,112.5274725,112.1167883,112.5274725,134.7368421
1.71E+12,128,128,-1,-1,-1,-1,-9.67554078,8.982738214,-0.692802566,-9.069852884,112.5274725,112.1167883,112.5274725,134.7368421
1.71E+12,128,128,-1,-1,-1,-1,-9.675483253,8.982481809,-0.693001444,-9.06991555,112.5274725,112.1167883,112.5274725,134.7368421
1.71E+12,128,128,-1,-1,-1,-1,-9.675420046,8.982205352,-0.693214694,-9.069983753,112.5274725,112.1167883,112.5274725,134.7368421
1.71E+12,128,128,-1,-1,-1,-1,-9.675350736,8.981907775,-0.69344296,-9.070057875,112.5274725,112.1167883,112.5274725,134.7368421
1.71E+12,128,128,-1,-1,-1,-1,-9.675274878,8.981587991,-0.693686887,-9.070138317,112.5274725,112.1167883,112.5274725,134.7368421
1.71E+12,128,128,-1,-1,-1,-1,-9.675192019,8.981244896,-0.693947124,-9.070225489,112.5274725,112.1167883,112.5274725,134.7368421
1.71E+12,128,128,-1,-1,-1,-1,-9.6751017,8.980877373,-0.694224326,-9.070319796,112.5274725,112.1167883,112.5274725,134.7368421
1.71E+12,128,128,-1,-1,-1,-1,-9.67500345,8.980484274,-0.694519175,-9.070421665,112.5274725,112.1167883,112.5274725,134.7368421
1.71E+12,128,128,-1,-1,-1,-1,-9.674896794,8.980064413,-0.694832381,-9.070531566,112.5274725,112.1167883,112.5274725,134.7368421
1.71E+12,128,128,-1,-1,-1,-1,-9.674781243,8.979616569,-0.695164674,-9.070649996,112.5274725,112.1167883,112.5274725,134.7368421
1.71E+12,128,128,-1,-1,-1,-1,-9.67465628,8.979139506,-0.695516774,-9.070777477,112.5274725,112.1167883,112.5274725,134.7368421
1.71E+12,128,128,-1,-1,-1,-1,-9.674521359,8.978631995,-0.695889364,-9.070914506,112.5274725,112.1167883,112.5274725,134.7368421
1.71E+12,128,128,-1,-1,-1,-1,-9.674375921,8.978092801,-0.69628312,-9.071061601,112.5274725,112.1167883,112.5274725,134.7368421
1.71E+12,128,128,-1,-1,-1,-1,-9.674219402,8.977520672,-0.696698731,-9.071219324,112.5274725,112.1167883,112.5274725,134.7368421
1.71E+12,128,128,-1,-1,-1,-1,-9.674051238,8.976914345,-0.697136893,-9.071388268,112.5274725,112.1167883,112.5274725,134.7368421
1.71E+12,128,128,-1,-1,-1,-1,-9.673870862,8.976272552,-0.69759831,-9.071569028,112.5274725,112.1167883,112.5274725,134.7368421
1.71E+12,128,128,-1,-1,-1,-1,-9.673677718,8.975594024,-0.698083694,-9.071762187,112.5274725,112.1167883,112.5274725,134.7368421
1.71E+12,128,128,-1,-1,-1,-1,-9.673471243,8.974877485,-0.698593758,-9.071968357,112.5274725,112.1167883,112.5274725,134.7368421
1.71E+12,128,128,-1,-1,-1,-1,-9.673250839,8.974121646,-0.699129193,-9.072188171,112.5274725,112.1167883,112.5274725,134.7368421
1.71E+12,128,128,-1,-1,-1,-1,-9.673015878,8.973325213,-0.699690665,-9.072422269,112.5274725,112.1167883,112.5274725,134.7368421
1.71E+12,128,128,-1,-1,-1,-1,-9.672765719,8.972486899,-0.70027882,-9.072671302,112.5274725,112.1167883,112.5274725,134.7368421
1.71E+12,128,128,-1,-1,-1,-1,-9.672499729,8.97160544,-0.70089429,-9.072935909,112.5274725,112.1167883,112.5274725,134.7368421
1.71E+12,128,128,-1,-1,-1,-1,-9.672217287,8.970679583,-0.701537705,-9.073216734,112.5274725,112.1167883,112.5274725,134.7368421
1.71E+12,128,128,-1,-1,-1,-1,-9.671917782,8.969708071,-0.70220971,-9.073514441,112.5274725,112.1167883,112.5274725,134.7368421
1.71E+12,128,128,-1,-1,-1,-1,-9.671600616,8.96868964,-0.702910976,-9.073829715,112.5274725,112.1167883,112.5274725,134.7368421
1.71E+12,128,128,-1,-1,-1,-1,-9.671265209,8.967623028,-0.703642181,-9.074163247,112.5274725,112.1167883,112.5274725,134.7368421
1.71E+12,128,128,-1,-1,-1,-1,-9.670910981,8.966506979,-0.704404003,-9.074515747,112.5274725,112.1167883,112.5274725,134.7368421
1.71E+12,128,128,-1,-1,-1,-1,-9.670537347,8.965340252,-0.705197096,-9.07488795,112.5274725,112.1167883,112.5274725,134.7368421
1.71E+12,128,128,-1,-1,-1,-1,-9.670143706,8.964121652,-0.706022054,-9.075280564,112.5274725,112.1167883,112.5274725,134.7368421
1.71E+12,128,128,-1,-1,-1,-1,-9.669729448,8.962850055,-0.706879392,-9.075694273,112.5274725,112.1167883,112.5274725,134.7368421
1.71E+12,128,128,-1,-1,-1,-1,-9.669293976,8.961524387,-0.707769589,-9.076129783,112.5274725,112.1167883,112.5274725,134.7368421
1.71E+12,128,128,-1,-1,-1,-0.999485163,-9.668836711,8.960143594,-0.708693117,-9.076587812,112.5274725,112.1167883,112.5274725,134.7368242
1.71E+12,128,128,-1,-1,-1,-0.997935838,-9.66835711,8.958706664,-0.709650447,-9.077069075,112.5274725,112.1167883,112.5274725,134.7367523
1.71E+12,128,128,-1,-1,-1,-0.995341555,-9.667854663,8.957212613,-0.71064205,-9.077574318,112.5274725,112.1167883,112.5274725,134.73659
1.71E+12,128,128,-1,-1,-1,-0.991687521,-9.667328881,8.955660475,-0.711668407,-9.078104295,112.5274725,112.1167883,112.5274725,134.7363004
1.71E+12,128,128,-1,-1,-1,-0.98695466,-9.666779288,8.954049321,-0.712729966,-9.078659762,112.5274725,112.1167883,112.5274725,134.7358459
1.71E+12,128,128,-1,-1,-1,-0.98111968,-9.666205414,8.952378291,-0.713827122,-9.079241477,112.5274725,112.1167883,112.5274725,134.7351881
1.71E+12,128,128,-1,-1,-1,-0.974155162,-9.665606807,8.950646573,-0.714960234,-9.079850181,112.5274725,112.1167883,112.5274725,134.7342877
1.71E+12,128,128,-1,-1,-1,-0.966029677,-9.664983048,8.948853401,-0.716129647,-9.080486596,112.5274725,112.1167883,112.5274725,134.7331042
1.71E+12,128,128,-1,-1,-1,-0.956707936,-9.664333763,8.946998068,-0.717335694,-9.081151452,112.5274725,112.1167883,112.5274725,134.7315959
1.71E+12,128,128,-1,-1,-1,-0.946150948,-9.663658612,8.945079918,-0.718578694,-9.08184547,112.5274725,112.1167883,112.5274725,134.7297199
1.71E+12,128,128,-1,-1,-1,-0.934316225,-9.662957304,8.943098361,-0.719858943,-9.082569379,112.5274725,112.1167883,112.5274725,134.7274315
1.71E+12,128,128,-1,-1,-1,-0.921157989,-9.662229588,8.941052874,-0.721176714,-9.083323887,112.5274725,112.1167883,112.5274725,134.7246847
1.71E+12,128,128,-1,-1,-1,-0.906627419,-9.661475264,8.938942993,-0.722532271,-9.084109672,112.5274725,112.1167883,112.5274725,134.7214317
1.71E+12,128,128,-1,-1,-1,-0.890672908,-9.660694177,8.936768326,-0.723925851,-9.084927397,112.5274725,112.1167883,112.5274725,134.7176228
1.71E+12,128,128,-1,-1,-1,-0.873240348,-9.659886215,8.93452857,-0.725357645,-9.085777712,112.5274725,112.1167883,112.5274725,134.7132066
1.71E+12,128,128,-1,-1,-1,-0.854273434,-9.659051305,8.93222349,-0.726827814,-9.086661245,112.5274725,112.1167883,112.5274725,134.7081296
1.71E+12,128,128,-1,-1,-1,-0.83371398,-9.658189428,8.929852925,-0.728336504,-9.087578619,112.5274725,112.1167883,112.5274725,134.7023363
1.71E+12,128,128,-1,-1,-1,-0.811502261,-9.657300646,8.927416751,-0.729883895,-9.088530441,112.5274725,112.1167883,112.5274725,134.6957692
1.71E+12,128,128,-1,-1,-1,-0.787577361,-9.656385094,8.924914867,-0.731470227,-9.089517286,112.5274725,112.1167883,112.5274725,134.6883686
1.71E+12,128,128,-1,-1,-1,-0.761877548,-9.655442976,8.922347207,-0.733095769,-9.090539723,112.5274725,112.1167883,112.5274725,134.6800726
1.71E+12,128,128,-1,-1,-1,-0.734340647,-9.654474563,8.919713756,-0.734760806,-9.0915983,112.5274725,112.1167883,112.5274725,134.6708172
1.71E+12,128,128,-1,-1,-1,-0.704904432,-9.65348018,8.917014563,-0.736465618,-9.092693517,112.5274725,112.1167883,112.5274725,134.6605363
1.71E+12,128,128,-1,-1,-1,-0.673507028,-9.652460189,8.91424976,-0.73821043,-9.09382588,112.5274725,112.1167883,112.5274725,134.6491616
1.71E+12,128,128,-1,-1,-1,-0.640087316,-9.651414973,8.911419581,-0.739995391,-9.094995896,112.5274725,112.1167883,112.5274725,134.6366225
1.71E+12,128,128,-1,-1,-1,-0.604585343,-9.650344969,8.908524356,-0.741820614,-9.096204027,112.5274725,112.1167883,112.5274725,134.6228466
1.71E+12,128,128,-1,-1,-1,-0.566942745,-9.649250696,8.905564496,-0.7436862,-9.097450709,112.5274725,112.1167883,112.5274725,134.6077592
1.71E+12,128,128,-1,-1,-1,-0.527103156,-9.648132757,8.902540497,-0.74559226,-9.098736352,112.5274725,112.1167883,112.5274725,134.5912839
1.71E+12,128,128,-1,-1,-1,-0.485012633,-9.646991836,8.899452912,-0.747538923,-9.100061333,112.5274725,112.1167883,112.5274725,134.5733421
1.71E+12,128,128,-1,-1,-1,-0.440620068,-9.645828685,8.896302346,-0.749526339,-9.101426008,112.5274725,112.1167883,112.5274725,134.5538537
1.71E+12,128,128,-1,-1,-1,-0.393877601,-9.644644123,8.893089472,-0.751554651,-9.102830691,112.5274725,112.1167883,112.5274725,134.5327369
1.71E+12,128,128,-1,-1,-1,-0.344741025,-9.643439015,8.889815043,-0.753623972,-9.104275666,112.5274725,112.1167883,112.5274725,134.5099082
1.71E+12,128,128,-1,-1,-1,-0.293170188,-9.642214269,8.886479898,-0.755734371,-9.105761178,112.5274725,112.1167883,112.5274725,134.4852828
1.71E+12,128,128,-1,-1,-1,-0.239129376,-9.640970839,8.88308496,-0.757885879,-9.107287431,112.5274725,112.1167883,112.5274725,134.4587747
1.71E+12,128,128,-1,-1,-1,-0.182587697,-9.639709749,8.87963122,-0.760078529,-9.108854602,112.5274725,112.1167883,112.5274725,134.4302967
1.71E+12,128,128,-1,-1,-1,-0.123519441,-9.638432106,8.876119713,-0.762312392,-9.110462843,112.5274725,112.1167883,112.5274725,134.3997608
1.71E+12,128,128,-1,-1,-1,-0.061904429,-9.6371391,8.872551514,-0.764587586,-9.112112279,112.5274725,112.1167883,112.5274725,134.3670783
1.71E+12,128,128,-1,-1,-1,0.002271648,-9.635831996,8.868927755,-0.766904241,-9.113802997,112.5274725,112.1167883,112.5274725,134.33216
1.71E+12,128,128,-1,-1,-1,0.069016923,-9.634512119,8.865249634,-0.769262486,-9.115535051,112.5274725,112.1167883,112.5274725,134.2949163
1.71E+12,128,128,-1,-1,-1,0.13833305,-9.633180851,8.861518411,-0.77166244,-9.11730847,112.5274725,112.1167883,112.5274725,134.2552577
1.71E+12,128,128,-1,-1,-1,0.210214937,-9.63183961,8.857735406,-0.774104205,-9.119123245,112.5274725,112.1167883,112.5274725,134.2130947
1.71E+12,128,128,-1,-1,-1,0.284650492,-9.630489838,8.853901959,-0.776587879,-9.120979318,112.5274725,112.1167883,112.5274725,134.1683385
1.71E+12,128,128,-1,-1,-1,0.361620394,-9.629133015,8.850019433,-0.779113582,-9.12287657,112.5274725,112.1167883,112.5274725,134.1209008
1.71E+12,128,128,-1,-1,-1,0.441097899,-9.627770675,8.846089247,-0.781681428,-9.124814843,112.5274725,112.1167883,112.5274725,134.0706941
1.71E+12,128,128,-1,-1,-1,0.523048657,-9.626404412,8.842112885,-0.784291527,-9.126793966,112.5274725,112.1167883,112.5274725,134.0176323
1.71E+12,128,128,-1,-1,-1,0.607430569,-9.625035876,8.838091888,-0.786943988,-9.128813729,112.5274725,112.1167883,112.5274725,133.9616307
1.71E+12,128,128,-1,-1,-1,0.694193668,-9.623666778,8.834027865,-0.789638913,-9.130873876,112.5274725,112.1167883,112.5274725,133.9026063
1.71E+12,128,128,-1,-1,-1,0.783280026,-9.622298863,8.829922453,-0.792376411,-9.132974115,112.5274725,112.1167883,112.5274725,133.8404782
1.71E+12,128,128,-1,-1,-1,0.8746237,-9.620933875,8.825777301,-0.795156574,-9.135114106,112.5274725,112.1167883,112.5274725,133.7751678
1.71E+12,128,128,-1,-1,-1,0.968150697,-9.619573547,8.821594094,-0.797979454,-9.137293476,112.5274725,112.1167883,112.5274725,133.706599
1.71E+12,128,128,-1,-1,-1,1.063778978,-9.618219619,8.817374554,-0.800845065,-9.139511811,112.5274725,112.1167883,112.5274725,133.6346986
1.71E+12,128,128,-1,-1,-1,1.161418493,-9.616873857,8.813120433,-0.803753424,-9.141768676,112.5274725,112.1167883,112.5274725,133.5593965
1.71E+12,128,128,-1,-1,-1,1.260971242,-9.615538074,8.80883349,-0.806704585,-9.144063591,112.5274725,112.1167883,112.5274725,133.4806261
1.71E+12,128,128,-1,-1,-1,1.362331375,-9.614214128,8.804515485,-0.809698643,-9.146396031,112.5274725,112.1167883,112.5274725,133.3983243
1.71E+12,128,128,-1,-1,-1,1.465385317,-9.612903901,8.800168219,-0.812735681,-9.148765437,112.5274725,112.1167883,112.5274725,133.3124323
1.71E+12,128,128,-1,-1,-1,1.57001193,-9.6116093,8.79579355,-0.81581575,-9.151171206,112.5274725,112.1167883,112.5274725,133.2228951
1.71E+12,128,128,-1,-1,-1,1.676082701,-9.61033226,8.791393399,-0.818938862,-9.153612703,112.5274725,112.1167883,112.5274725,133.1296625
1.71E+12,128,128,-1,-1,-1,1.783461963,-9.609074713,8.786969727,-0.822104986,-9.156089268,112.5274725,112.1167883,112.5274725,133.0326889
1.71E+12,128,128,-1,-1,-1,1.892007151,-9.607838549,8.782524528,-0.825314021,-9.158600207,112.5274725,112.1167883,112.5274725,132.9319337
1.71E+12,128,128,-1,-1,-1,2.001569075,-9.606625624,8.778059826,-0.828565799,-9.161144809,112.5274725,112.1167883,112.5274725,132.8273614
1.71E+12,128,128,-1,-1,-1,2.111992236,-9.605437795,8.773577665,-0.83186013,-9.163722341,112.5274725,112.1167883,112.5274725,132.7189421
1.71E+12,128,128,-1,-1,-1,2.223115161,-9.604276937,8.769080099,-0.835196839,-9.166332035,112.5274725,112.1167883,112.5274725,132.6066513
1.71E+12,128,128,-1,-1,-1,2.334770764,-9.603144936,8.764569173,-0.838575763,-9.168973132,112.5274725,112.1167883,112.5274725,132.4904706
1.71E+12,128,128,-1,-1,-1,2.446786738,-9.602043668,8.760046909,-0.841996759,-9.171644857,112.5274725,112.1167883,112.5274725,132.3703873
1.71E+12,128,128,-1,-1,-1,2.558985971,-9.600974975,8.755515278,-0.845459698,-9.174346394,112.5274725,112.1167883,112.5274725,132.246395
1.71E+12,128,128,-1,-1,-1,2.671186975,-9.599940653,8.750976243,-0.84896441,-9.177076899,112.5274725,112.1167883,112.5274725,132.1184938
1.71E+12,128,128,-1,-1,-1,2.78320435,-9.598942426,8.746431795,-0.85251063,-9.179835513,112.5274725,112.1167883,112.5274725,131.98669
1.71E+12,128,128,-1,-1,-1,2.894849262,-9.597981939,8.741883945,-0.856097994,-9.182621363,112.5274725,112.1167883,112.5274725,131.8509965
1.71E+12,128,128,-1,-1,-1,3.005929932,-9.597060783,8.73733471,-0.859726074,-9.185433566,112.5274725,112.1167883,112.5274725,131.7114331
1.71E+12,128,128,-1,-1,-1,3.116252157,-9.596180519,8.732786107,-0.863394412,-9.188271222,112.5274725,112.1167883,112.5274725,131.5680261
1.71E+12,128,128,-1,-1,-1,3.225619831,-9.595342665,8.728240152,-0.867102513,-9.191133431,112.5274725,112.1167883,112.5274725,131.4208089
1.71E+12,128,128,-1,-1,-1,3.333835488,-9.594548688,8.723698851,-0.870849837,-9.194019286,112.5274725,112.1167883,112.5274725,131.2698215
1.71E+12,128,128,-1,-1,-1,3.440700849,-9.593800007,8.71916422,-0.874635787,-9.196927863,112.5274725,112.1167883,112.5274725,131.1151111
1.71E+12,128,128,-1,-1,-1,3.546017388,-9.59309798,8.71463826,-0.87845972,-9.19985821,112.5274725,112.1167883,112.5274725,130.9567314
1.71E+12,128,128,-1,-1,-1,3.649586892,-9.592443888,8.710122943,-0.882320945,-9.202809389,112.5274725,112.1167883,112.5274725,130.7947435
1.71E+12,128,128,-1,-1,-1,3.751212038,-9.591838928,8.705620209,-0.886218718,-9.205780475,112.5274725,112.1167883,112.5274725,130.6292151
1.71E+12,128,128,-1,-1,-1,3.850696962,-9.591284214,8.701131962,-0.890152252,-9.208770533,112.5274725,112.1167883,112.5274725,130.4602207
1.71E+12,128,128,-1,-1,-1,3.947847839,-9.590780786,8.696660042,-0.894120744,-9.211778602,112.5274725,112.1167883,112.5274725,130.2878416
1.71E+12,128,128,-1,-1,-1,4.042473453,-9.59032962,8.692206209,-0.898123411,-9.214803736,112.5274725,112.1167883,112.5274725,130.1121658
1.71E+12,128,128,-1,-1,-1,4.134385767,-9.589931619,8.687772131,-0.902159488,-9.217845019,112.5274725,112.1167883,112.5274725,129.9332879
1.71E+12,128,128,-1,-1,-1,4.22340049,-9.589587617,8.683359382,-0.906228234,-9.220901534,112.5274725,112.1167883,112.5274725,129.7513088
1.71E+12,128,128,-1,-1,-1,4.309337632,-9.589298363,8.678969461,-0.910328902,-9.223972358,112.5274725,112.1167883,112.5274725,129.5663357
1.71E+12,128,128,-1,-1,-1,4.39202205,-9.58906452,8.674603807,-0.914460713,-9.227056568,112.5274725,112.1167883,112.5274725,129.3784819
1.71E+12,128,128,-1,-1,-1,4.471283982,-9.588886646,8.670263819,-0.918622826,-9.230153264,112.5274725,112.1167883,112.5274725,129.1878668
1.71E+12,128,128,-1,-1,-1,4.546959572,-9.588765197,8.665950863,-0.922814334,-9.233261556,112.5274725,112.1167883,112.5274725,128.9946151
1.71E+12,128,128,-1,-1,-1,4.618891371,-9.588700547,8.661666228,-0.927034319,-9.236380546,112.5274725,112.1167883,112.5274725,128.7988574
1.71E+12,128,128,-1,-1,-1,4.686928827,-9.588692995,8.657411117,-0.931281879,-9.239509356,112.5274725,112.1167883,112.5274725,128.6007293
1.71E+12,128,128,-1,-1,-1,4.750928753,-9.588742773,8.653186657,-0.935556116,-9.242647133,112.5274725,112.1167883,112.5274725,128.4003715
1.71E+12,128,128,-1,-1,-1,4.81075577,-9.588850043,8.64899392,-0.939856123,-9.245793036,112.5274725,112.1167883,112.5274725,128.1979294
1.71E+12,128,128,-1,-1,-1,4.866282735,-9.589014882,8.644833921,-0.944180961,-9.24894623,112.5274725,112.1167883,112.5274725,127.9935528
1.71E+12,128,128,-1,-1,-1,4.917391141,-9.589237279,8.640707626,-0.948529653,-9.252105887,112.5274725,112.1167883,112.5274725,127.7873956
1.71E+12,128,128,-1,-1,-1,4.963971483,-9.589517126,8.636615954,-0.952901172,-9.255271207,112.5274725,112.1167883,112.5274725,127.5796156
1.71E+12,128,128,-1,-1,-1,5.005923611,-9.589854207,8.632559788,-0.957294419,-9.258441421,112.5274725,112.1167883,112.5274725,127.370374
1.71E+12,128,128,-1,-1,-1,5.043157043,-9.590248215,8.628539952,-0.961708263,-9.261615764,112.5274725,112.1167883,112.5274725,127.1598352
1.71E+12,128,128,-1,-1,-1,5.075591253,-9.590698759,8.62455718,-0.96614158,-9.264793452,112.5274725,112.1167883,112.5274725,126.9481665
1.71E+12,128,128,-1,-1,-1,5.103155924,-9.591205381,8.620612118,-0.970593264,-9.267973722,112.5274725,112.1167883,112.5274725,126.7355374
1.71E+12,128,128,-1,-1,-1,5.125791177,-9.591767551,8.616705343,-0.975062208,-9.271155829,112.5274725,112.1167883,112.5274725,126.5221197
1.71E+12,128,128,-1,-1,-1,5.143447755,-9.592384665,8.612837361,-0.979547304,-9.274339046,112.5274725,112.1167883,112.5274725,126.3080868
1.71E+12,128,128,-1,-1,-1,5.156087184,-9.593056053,8.609008602,-0.984047451,-9.277522691,112.5274725,112.1167883,112.5274725,126.0936137
1.71E+12,128,128,-1,-1,-1,5.163681893,-9.593780965,8.605219415,-0.98856155,-9.28070609,112.5274725,112.1167883,112.5274725,125.8788759
1.71E+12,128,128,-1,-1,-1,5.166215307,-9.594558566,8.60147008,-0.993088486,-9.283888575,112.5274725,112.1167883,112.5274725,125.6640499
1.71E+12,128,128,-1,-1,-1,5.163681893,-9.595387933,8.597760823,-0.99762711,-9.287069492,112.5274725,112.1167883,112.5274725,125.4493121
1.71E+12,128,128,-1,-1,-1,5.156087184,-9.596268072,8.594091802,-1.002176271,-9.290248177,112.5274725,112.1167883,112.5274725,125.2348389
1.71E+12,128,128,-1,-1,-1,5.143447755,-9.597197938,8.590463103,-1.006734834,-9.293424,112.5274725,112.1167883,112.5274725,125.0208061
1.71E+12,128,128,-1,-1,-1,5.125791177,-9.598176428,8.58687475,-1.011301678,-9.296596389,112.5274725,112.1167883,112.5274725,124.8073884
1.71E+12,128,128,-1,-1,-1,5.103155924,-9.599202398,8.583326679,-1.015875719,-9.299764776,112.5274725,112.1167883,112.5274725,124.5947593
1.71E+12,128,128,-1,-1,-1,5.075591253,-9.600274661,8.579818739,-1.020455922,-9.302928615,112.5274725,112.1167883,112.5274725,124.3830905
1.71E+12,128,128,-1,-1,-1,5.043157043,-9.601391983,8.576350697,-1.025041286,-9.30608739,112.5274725,112.1167883,112.5274725,124.1725518
1.71E+12,128,128,-1,-1,-1,5.005923611,-9.602553045,8.572922347,-1.029630698,-9.309240607,112.5274725,112.1167883,112.5274725,123.9633102
1.71E+12,128,128,-1,-1,-1,4.963971483,-9.603756436,8.569533503,-1.034222933,-9.312387849,112.5274725,112.1167883,112.5274725,123.7555301
1.71E+12,128,128,-1,-1,-1,4.917391141,-9.605000643,8.566183892,-1.038816751,-9.315528744,112.5274725,112.1167883,112.5274725,123.5493729
1.71E+12,128,128,-1,-1,-1,4.866282735,-9.60628401,8.562873169,-1.043410842,-9.318662945,112.5274725,112.1167883,112.5274725,123.3449963
1.71E+12,128,128,-1,-1,-1,4.81075577,-9.607604708,8.559600976,-1.048003732,-9.321790146,112.5274725,112.1167883,112.5274725,123.1425542
1.71E+12,128,128,-1,-1,-1,4.750928753,-9.608960745,8.55636698,-1.052593766,-9.324910099,112.5274725,112.1167883,112.5274725,122.9421964
1.71E+12,128,128,-1,-1,-1,4.686928827,-9.610350046,8.553170911,-1.057179135,-9.328022621,112.5274725,112.1167883,112.5274725,122.7440684
1.71E+12,128,128,-1,-1,-1,4.618891371,-9.611770573,8.550012736,-1.061757837,-9.331127602,112.5274725,112.1167883,112.5274725,122.5483107
1.71E+12,128,128,-1,-1,-1,4.546959572,-9.613220402,8.546892748,-1.066327655,-9.334224985,112.5274725,112.1167883,112.5274725,122.355059
1.71E+12,128,128,-1,-1,-1,4.471283982,-9.614697758,8.543811515,-1.070886243,-9.337314772,112.5274725,112.1167883,112.5274725,122.1644438
1.71E+12,128,128,-1,-1,-1,4.39202205,-9.616201005,8.54076975,-1.075431255,-9.340397031,112.5274725,112.1167883,112.5274725,121.9765901
1.71E+12,128,128,-1,-1,-1,4.309337632,-9.617728687,8.537768005,-1.079960682,-9.343471852,112.5274725,112.1167883,112.5274725,121.791617
1.71E+12,128,128,-1,-1,-1,4.22340049,-9.619279703,8.534806507,-1.084473196,-9.346539323,112.5274725,112.1167883,112.5274725,121.6096379
1.71E+12,128,128,-1,-1,-1,4.134385767,-9.620853407,8.531885301,-1.088968106,-9.349599555,112.5274725,112.1167883,112.5274725,121.4307599
1.71E+12,128,128,-1,-1,-1,4.042473453,-9.622449416,8.529004318,-1.093445098,-9.352652701,112.5274725,112.1167883,112.5274725,121.2550842
1.71E+12,128,128,-1,-1,-1,3.947847839,-9.624067314,8.526163203,-1.097904111,-9.355698982,112.5274725,112.1167883,112.5274725,121.0827051
1.71E+12,128,128,-1,-1,-1,3.850696962,-9.62570656,8.523361234,-1.102345326,-9.358738675,112.5274725,112.1167883,112.5274725,120.9137107
1.71E+12,128,128,-1,-1,-1,3.751212038,-9.62736651,8.520597427,-1.106769083,-9.36177212,112.5274725,112.1167883,112.5274725,120.7481822
1.71E+12,128,128,-1,-1,-1,3.649586892,-9.629046422,8.517870598,-1.111175825,-9.364799725,112.5274725,112.1167883,112.5274725,120.5861943
1.71E+12,128,128,-1,-1,-1,3.546017388,-9.630745457,8.515179365,-1.115566092,-9.367821941,112.5274725,112.1167883,112.5274725,120.4278147
1.71E+12,128,128,-1,-1,-1,3.440700849,-9.632462709,8.512522204,-1.119940505,-9.370839248,112.5274725,112.1167883,112.5274725,120.2731042
1.71E+12,128,128,-1,-1,-1,3.333835488,-9.634197244,8.509897522,-1.124299722,-9.373852144,112.5274725,112.1167883,112.5274725,120.1221168
1.71E+12,128,128,-1,-1,-1,3.225619831,-9.635948092,8.507303752,-1.12864434,-9.376861151,112.5274725,112.1167883,112.5274725,119.9748996
1.71E+12,128,128,-1,-1,-1,3.116252157,-9.637714262,8.504739423,-1.132974838,-9.379866786,112.5274725,112.1167883,112.5274725,119.8314927
1.71E+12,128,128,-1,-1,-1,3.005929932,-9.639494789,8.502203155,-1.137291634,-9.382869576,112.5274725,112.1167883,112.5274725,119.6919292
1.71E+12,128,128,-1,-1,-1,2.894849262,-9.641288744,8.499693658,-1.141595086,-9.385870054,112.5274725,112.1167883,112.5274725,119.5562358
1.71E+12,128,128,-1,-1,-1,2.78320435,-9.643095203,8.497209725,-1.145885478,-9.388868742,112.5274725,112.1167883,112.5274725,119.424432
1.71E+12,128,128,-1,-1,-1,2.671186975,-9.644913256,8.494750203,-1.150163053,-9.391866146,112.5274725,112.1167883,112.5274725,119.2965307
1.71E+12,128,128,-1,-1,-1,2.558985971,-9.646742033,8.492313985,-1.154428049,-9.394862759,112.5274725,112.1167883,112.5274725,119.1725385
1.71E+12,128,128,-1,-1,-1,2.446786738,-9.648580707,8.489899983,-1.158680724,-9.397859084,112.5274725,112.1167883,112.5274725,119.0524552
1.71E+12,128,128,-1,-1,-1,2.334770764,-9.65042849,8.487507123,-1.162921366,-9.400855626,112.5274725,112.1167883,112.5274725,118.9362744
1.71E+12,128,128,-1,-1,-1,2.223115161,-9.652284663,8.485134338,-1.167150325,-9.403852886,112.5274725,112.1167883,112.5274725,118.8239837
1.71E+12,128,128,-1,-1,-1,2.111992236,-9.654148585,8.482780548,-1.171368038,-9.406851377,112.5274725,112.1167883,112.5274725,118.7155643
1.71E+12,128,128,-1,-1,-1,2.001569075,-9.656019671,8.48044462,-1.175575051,-9.409851608,112.5274725,112.1167883,112.5274725,118.6109921
1.71E+12,128,128,-1,-1,-1,1.892007151,-9.657897369,8.478125365,-1.179772004,-9.412854104,112.5274725,112.1167883,112.5274725,118.5102368
1.71E+12,128,128,-1,-1,-1,1.783461963,-9.659781173,8.475821595,-1.183959578,-9.41585942,112.5274725,112.1167883,112.5274725,118.4132632
1.71E+12,128,128,-1,-1,-1,1.676082701,-9.661670644,8.473532146,-1.188138498,-9.418868106,112.5274725,112.1167883,112.5274725,118.3200306
1.71E+12,128,128,-1,-1,-1,1.57001193,-9.663565401,8.471255851,-1.19230955,-9.421880744,112.5274725,112.1167883,112.5274725,118.2304935
1.71E+12,128,128,-1,-1,-1,1.465385317,-9.665465105,8.468991528,-1.196473577,-9.424897968,112.5274725,112.1167883,112.5274725,118.1446014
1.71E+12,128,128,-1,-1,-1,1.362331375,-9.66736947,8.466738003,-1.200631467,-9.427920398,112.5274725,112.1167883,112.5274725,118.0622997
1.71E+12,128,128,-1,-1,-1,1.260971242,-9.669278242,8.46449396,-1.204784282,-9.430948848,112.5274725,112.1167883,112.5274725,117.9835292
1.71E+12,128,128,-1,-1,-1,1.161418493,-9.671191167,8.462257931,-1.208933236,-9.433984349,112.5274725,112.1167883,112.5274725,117.9082271
1.71E+12,128,128,-1,-1,-1,1.063778978,-9.673108001,8.460028461,-1.21307954,-9.437027929,112.5274725,112.1167883,112.5274725,117.8363267
1.71E+12,128,128,-1,-1,-1,0.968150697,-9.675028521,8.45780411,-1.217224411,-9.440080637,112.5274725,112.1167883,112.5274725,117.7677579
1.71E+12,128,128,-1,-1,-1,0.8746237,-9.676952524,8.455583414,-1.22136911,-9.44314352,112.5274725,112.1167883,112.5274725,117.7024475
1.71E+12,128,128,-1,-1,-1,0.783280026,-9.678879844,8.453364874,-1.22551497,-9.446217629,112.5274725,112.1167883,112.5274725,117.6403195
1.71E+12,128,128,-1,-1,-1,0.694193668,-9.680810342,8.451146958,-1.229663385,-9.449304027,112.5274725,112.1167883,112.5274725,117.5812951
1.71E+12,128,128,-1,-1,-1,0.607430569,-9.682743899,8.448928105,-1.233815794,-9.45240376,112.5274725,112.1167883,112.5274725,117.5252935
1.71E+12,128,128,-1,-1,-1,0.523048657,-9.684680414,8.446706754,-1.23797366,-9.45551787,112.5274725,112.1167883,112.5274725,117.4722317
1.71E+12,128,128,-1,-1,-1,0.441097899,-9.686619775,8.44448135,-1.242138426,-9.458647403,112.5274725,112.1167883,112.5274725,117.422025
1.71E+12,128,128,-1,-1,-1,0.361620394,-9.688561854,8.442250355,-1.246311498,-9.461793411,112.5274725,112.1167883,112.5274725,117.3745872
1.71E+12,128,128,-1,-1,-1,0.284650492,-9.690506489,8.440012227,-1.250494262,-9.464956916,112.5274725,112.1167883,112.5274725,117.329831
1.71E+12,128,128,-1,-1,-1,0.210214937,-9.692453507,8.437765398,-1.254688109,-9.468138935,112.5274725,112.1167883,112.5274725,117.2876681
1.71E+12,128,128,-1,-1,-1,0.13833305,-9.694402727,8.435508269,-1.258894458,-9.471340535,112.5274725,112.1167883,112.5274725,117.2480095
1.71E+12,128,128,-1,-1,-1,0.069016923,-9.696353941,8.433239197,-1.263114744,-9.474562775,112.5274725,112.1167883,112.5274725,117.2107658
1.71E+12,128,128,-1,-1,-1,0.002271648,-9.698306912,8.430956495,-1.267350417,-9.477806696,112.5274725,112.1167883,112.5274725,117.1758474
1.71E+12,128,128,-1,-1,-1,-0.061904429,-9.700261363,8.428658428,-1.271602935,-9.481073331,112.5274725,112.1167883,112.5274725,117.1431649
1.71E+12,128,128,-1,-1,-1,-0.123519441,-9.70221697,8.426343235,-1.275873735,-9.48436367,112.5274725,112.1167883,112.5274725,117.112629
1.71E+12,128,128,-1,-1,-1,-0.182587697,-9.704173362,8.424009156,-1.280164206,-9.487678679,112.5274725,112.1167883,112.5274725,117.084151
1.71E+12,128,128,-1,-1,-1,-0.239129376,-9.7061301,8.421654432,-1.284475668,-9.491019347,112.5274725,112.1167883,112.5274725,117.0576429
1.71E+12,128,128,-1,-1,-1,-0.293170188,-9.708086677,8.419277295,-1.288809382,-9.494386692,112.5274725,112.1167883,112.5274725,117.0330175
1.71E+12,128,128,-1,-1,-1,-0.344741025,-9.710042528,8.416875958,-1.29316657,-9.497781708,112.5274725,112.1167883,112.5274725,117.0101888
1.71E+12,128,128,-1,-1,-1,-0.393877601,-9.71199704,8.414448613,-1.297548427,-9.501205378,112.5274725,112.1167883,112.5274725,116.989072
1.71E+12,128,128,-1,-1,-1,-0.440620068,-9.713949547,8.411993447,-1.3019561,-9.504658742,112.5274725,112.1167883,112.5274725,116.9695837
1.71E+12,128,128,-1,-1,-1,-0.485012633,-9.715899332,8.409508625,-1.306390707,-9.508142823,112.5274725,112.1167883,112.5274725,116.9516419
1.71E+12,128,128,-1,-1,-1,-0.527103156,-9.717845628,8.406992266,-1.310853362,-9.511658545,112.5274725,112.1167883,112.5274725,116.9351666
1.71E+12,128,128,-1,-1,-1,-0.566942745,-9.71978758,8.404442477,-1.315345102,-9.51520681,112.5274725,112.1167883,112.5274725,116.9200792
1.71E+12,128,128,-1,-1,-1,-0.604585343,-9.721724238,8.401857347,-1.319866891,-9.518788494,112.5274725,112.1167883,112.5274725,116.9063033
1.71E+12,128,128,-1,-1,-1,-0.640087316,-9.723654579,8.399234958,-1.324419621,-9.522404482,112.5274725,112.1167883,112.5274725,116.8937642
1.71E+12,128,128,-1,-1,-1,-0.673507028,-9.725577518,8.396573437,-1.329004081,-9.526055633,112.5274725,112.1167883,112.5274725,116.8823894
1.71E+12,128,128,-1,-1,-1,-0.704904432,-9.72749191,8.393870935,-1.333620975,-9.529742753,112.5274725,112.1167883,112.5274725,116.8721085
1.71E+12,128,128,-1,-1,-1,-0.734340647,-9.729396539,8.391125614,-1.338270925,-9.53346662,112.5274725,112.1167883,112.5274725,116.8628532
1.71E+12,128,128,-1,-1,-1,-0.761877548,-9.731290126,8.388335638,-1.342954489,-9.537227984,112.5274725,112.1167883,112.5274725,116.8545572
1.71E+12,128,128,-1,-1,-1,-0.787577361,-9.733171339,8.385499174,-1.347672165,-9.541027606,112.5274725,112.1167883,112.5274725,116.8471565
1.71E+12,128,128,-1,-1,-1,-0.811502261,-9.735038762,8.382614404,-1.352424358,-9.544866205,112.5274725,112.1167883,112.5274725,116.8405894
1.71E+12,128,128,-1,-1,-1,-0.83371398,-9.73689089,8.37967954,-1.357211349,-9.548744437,112.5274725,112.1167883,112.5274725,116.8347962
1.71E+12,128,128,-1,-1,-1,-0.854273434,-9.738726157,8.376692812,-1.362033345,-9.552662913,112.5274725,112.1167883,112.5274725,116.8297192
1.71E+12,128,128,-1,-1,-1,-0.873240348,-9.740542938,8.373652446,-1.366890492,-9.556622231,112.5274725,112.1167883,112.5274725,116.825303
1.71E+12,128,128,-1,-1,-1,-0.890672908,-9.742339541,8.370556672,-1.371782869,-9.560622986,112.5274725,112.1167883,112.5274725,116.8214941
1.71E+12,128,128,-1,-1,-1,-0.906627419,-9.744114232,8.367403742,-1.376710489,-9.564665728,112.5274725,112.1167883,112.5274725,116.8182411
1.71E+12,128,128,-1,-1,-1,-0.921157989,-9.745865248,8.36419196,-1.381673288,-9.56875097,112.5274725,112.1167883,112.5274725,116.8154943
1.71E+12,128,128,-1,-1,-1,-0.934316225,-9.747590801,8.360919676,-1.386671125,-9.572879238,112.5274725,112.1167883,112.5274725,116.8132059
1.71E+12,128,128,-1,-1,-1,-0.946150948,-9.749289049,8.35758528,-1.391703769,-9.577051031,112.5274725,112.1167883,112.5274725,116.8113298
1.71E+12,128,128,-1,-1,-1,-0.956707936,-9.750958087,8.354187218,-1.396770869,-9.58126683,112.5274725,112.1167883,112.5274725,116.8098216
1.71E+12,128,128,-1,-1,-1,-0.966029677,-9.752595946,8.350723999,-1.401871947,-9.585527097,112.5274725,112.1167883,112.5274725,116.8086381
1.71E+12,128,128,-1,-1,-1,-0.974155162,-9.754200631,8.347194193,-1.407006437,-9.589832241,112.5274725,112.1167883,112.5274725,116.8077377
1.71E+12,128,128,-1,-1,-1,-0.98111968,-9.755770128,8.343596436,-1.412173692,-9.594182609,112.5274725,112.1167883,112.5274725,116.8070799
1.71E+12,128,128,-1,-1,-1,-0.98695466,-9.757302403,8.339929414,-1.417372989,-9.598578519,112.5274725,112.1167883,112.5274725,116.8066254
1.71E+12,128,128,-1,-1,-1,-0.991687521,-9.758795417,8.336191887,-1.42260353,-9.603020237,112.5274725,112.1167883,112.5274725,116.8063358
1.71E+12,128,128,-1,-1,-1,-0.995341555,-9.760247135,8.332382696,-1.427864439,-9.607507949,112.5274725,112.1167883,112.5274725,116.8061735
1.71E+12,128,128,-1,-1,-1,-0.997935838,-9.761655547,8.328500744,-1.433154803,-9.612041821,112.5274725,112.1167883,112.5274725,116.8061016
1.71E+12,128,128,-1,-1,-1,-0.999485163,-9.763018649,8.324544982,-1.438473667,-9.616622027,112.5274725,112.1167883,112.5274725,116.8060837
1.71E+12,128,128,-1,-1,-1,-1,-9.764334426,8.320514444,-1.443819981,-9.621248659,112.5274725,112.1167883,112.5274725,116.8060837
1.71E+12,128,128,-1,-1,-1,-1,-9.765600871,8.316408257,-1.449192613,-9.625921747,112.5274725,112.1167883,112.5274725,116.8060837
1.71E+12,128,128,-1,-1,-1,-1,-9.766815999,8.312225609,-1.45459039,-9.630641289,112.5274725,112.1167883,112.5274725,116.8060837
1.71E+12,128,128,-1,-1,-1,-1,-9.767977866,8.307965775,-1.460012091,-9.635407209,112.5274725,112.1167883,112.5274725,116.8060837
1.71E+12,128,128,-1,-1,-1,-1,-9.769084586,8.303628151,-1.465456435,-9.640219351,112.5274725,112.1167883,112.5274725,116.8060837
1.71E+12,128,128,-1,-1,-1,-1,-9.770134352,8.299212251,-1.4709221,-9.645077492,112.5274725,112.1167883,112.5274725,116.8060837
1.71E+12,128,128,-1,-1,-1,-1,-9.771125444,8.29471769,-1.476407753,-9.64998137,112.5274725,112.1167883,112.5274725,116.8060837
1.71E+12,128,128,-1,-1,-1,-1,-9.772056213,8.290144192,-1.481912021,-9.654930707,112.5274725,112.1167883,112.5274725,116.8060837
1.71E+12,128,128,-1,-1,-1,-1,-9.77292506,8.285491597,-1.487433463,-9.659925165,112.5274725,112.1167883,112.5274725,116.8060837
1.71E+12,128,128,-1,-1,-1,-1,-9.773730446,8.280759865,-1.49297058,-9.664964345,112.5274725,112.1167883,112.5274725,116.8060837
1.71E+12,128,128,-1,-1,-1,-1,-9.774470913,8.275949062,-1.498521852,-9.670047811,112.5274725,112.1167883,112.5274725,116.8060837
1.71E+12,128,128,-1,-1,-1,-1,-9.775145119,8.271059351,-1.504085768,-9.675175042,112.5274725,112.1167883,112.5274725,116.8060837
1.71E+12,128,128,-1,-1,-1,-1,-9.775751839,8.266090985,-1.509660854,-9.680345486,112.5274725,112.1167883,112.5274725,116.8060837
1.71E+12,128,128,-1,-1,-1,-1,-9.776289956,8.261044309,-1.515245647,-9.685558581,112.5274725,112.1167883,112.5274725,116.8060837
1.71E+12,128,128,-1,-1,-1,-1,-9.776758459,8.255919757,-1.520838702,-9.690813715,112.5274725,112.1167883,112.5274725,116.8060837
1.71E+12,128,128,-1,-1,-1,-1,-9.777156449,8.250717855,-1.526438595,-9.696110206,112.5274725,112.1167883,112.5274725,116.8060837
1.71E+12,128,128,-1,-1,-1,-1,-9.777483146,8.245439261,-1.532043885,-9.701447347,112.5274725,112.1167883,112.5274725,116.8060837
1.71E+12,128,128,-1,-1,-1,-1,-9.777737877,8.240084773,-1.537653105,-9.706824374,112.5274725,112.1167883,112.5274725,116.8060837
1.71E+12,128,128,-1,-1,-1,-1,-9.777920076,8.234655318,-1.543264758,-9.712240449,112.5274725,112.1167883,112.5274725,116.8060837
1.71E+12,128,128,-1,-1,-1,-1,-9.778029298,8.22915196,-1.548877338,-9.717694693,112.5274725,112.1167883,112.5274725,116.8060837
1.71E+12,128,128,-1,-1,-1,-1,-9.778065249,8.223575887,-1.554489362,-9.723186169,112.5274725,112.1167883,112.5274725,116.8060837
1.71E+12,128,128,-1,-1,-1,-1,-9.778027789,8.21792838,-1.560099409,-9.728713912,112.5274725,112.1167883,112.5274725,116.8060837
1.71E+12,128,128,-1,-1,-1,-1,-9.777916919,8.212210813,-1.565706105,-9.734276933,112.5274725,112.1167883,112.5274725,116.8060837
1.71E+12,128,128,-1,-1,-1,-1,-9.777732806,8.206424655,-1.571308151,-9.739874174,112.5274725,112.1167883,112.5274725,116.8060837
1.71E+12,128,128,-1,-1,-1,-1,-9.777475791,8.200571465,-1.576904326,-9.745504516,112.5274725,112.1167883,112.5274725,116.8060837
1.71E+12,128,128,-1,-1,-1,-1,-9.777146364,8.194652946,-1.582493418,-9.751166793,112.5274725,112.1167883,112.5274725,116.8060837
1.71E+12,128,128,-1,-1,-1,-1,-9.776745138,8.18867093,-1.588074208,-9.756859791,112.5274725,112.1167883,112.5274725,116.8060837
1.71E+12,128,128,-1,-1,-1,-1,-9.77627285,8.182627344,-1.593645506,-9.762582258,112.5274725,112.1167883,112.5274725,116.8060837
1.71E+12,128,128,-1,-1,-1,-1,-9.775730369,8.176524218,-1.599206151,-9.768332914,112.5274725,112.1167883,112.5274725,116.8060837
1.71E+12,128,128,-1,-1,-1,-1,-9.775118709,8.170363708,-1.604755001,-9.774110428,112.5274725,112.1167883,112.5274725,116.8060837
1.71E+12,128,128,-1,-1,-1,-1,-9.77443905,8.164148064,-1.610290986,-9.77991346,112.5274725,112.1167883,112.5274725,116.8060837
1.71E+12,128,128,-1,-1,-1,-1,-9.773692741,8.157879592,-1.615813149,-9.785740632,112.5274725,112.1167883,112.5274725,116.8060837
1.71E+12,128,128,-1,-1,-1,-1,-9.772881307,8.151560662,-1.621320646,-9.791590528,112.5274725,112.1167883,112.5274725,116.8060837
1.71E+12,128,128,-1,-1,-1,-1,-9.772006427,8.145193709,-1.626812718,-9.7974617,112.5274725,112.1167883,112.5274725,116.8060837
1.71E+12,128,128,-1,-1,-1,-1,-9.771069886,8.138781225,-1.632288661,-9.803352679,112.5274725,112.1167883,112.5274725,116.8060837
1.71E+12,128,128,-1,-1,-1,-1,-9.770073575,8.132325791,-1.637747784,-9.809261969,112.5274725,112.1167883,112.5274725,116.8060837
1.71E+12,128,128,-1,-1,-1,-1,-9.7690195,8.125830108,-1.643189392,-9.815188023,112.5274725,112.1167883,112.5274725,116.8060837
1.71E+12,128,128,-1,-1,-1,-1,-9.76790978,8.119296937,-1.648612843,-9.821129291,112.5274725,112.1167883,112.5274725,116.8060837
1.71E+12,128,128,-1,-1,-1,-1,-9.766746663,8.112729064,-1.654017599,-9.827084186,112.5274725,112.1167883,112.5274725,116.8060837
1.71E+12,128,128,-1,-1,-1,-1,-9.765532532,8.10612931,-1.659403222,-9.833051075,112.5274725,112.1167883,112.5274725,116.8060837
1.71E+12,128,128,-1,-1,-1,-1,-9.764269895,8.099500556,-1.664769339,-9.839028342,112.5274725,112.1167883,112.5274725,116.8060837
1.71E+12,128,128,-1,-1,-1,-1,-9.762961393,8.092845789,-1.670115604,-9.845014348,112.5274725,112.1167883,112.5274725,116.8060837
1.71E+12,128,128,-1,-1,-1,-1,-9.761609762,8.0861681,-1.675441661,-9.851007458,112.5274725,112.1167883,112.5274725,116.8060837
1.71E+12,128,128,-1,-1,-1,-1,-9.76021781,8.079470614,-1.680747195,-9.85700604,112.5274725,112.1167883,112.5274725,116.8060837
1.71E+12,128,128,-1,-1,-1,-1,-9.758788426,8.072756452,-1.686031974,-9.863008421,112.5274725,112.1167883,112.5274725,116.8060837
1.71E+12,128,128,-1,-1,-1,-1,-9.757324574,8.066028717,-1.691295857,-9.86901295,112.5274725,112.1167883,112.5274725,116.8060837
1.71E+12,128,128,-1,-1,-1,-1,-9.75582928,8.05929048,-1.696538801,-9.875017989,112.5274725,112.1167883,112.5274725,116.8060837
1.71E+12,128,128,-1,-1,-1,-1,-9.75430566,8.052544812,-1.701760848,-9.881021861,112.5274725,112.1167883,112.5274725,116.8060837
1.71E+12,128,128,-1,-1,-1,-1,-9.752756924,8.045794793,-1.706962131,-9.887022904,112.5274725,112.1167883,112.5274725,116.8060837
1.71E+12,128,128,-1,-1,-1,-1,-9.751186359,8.039043492,-1.712142867,-9.893019488,112.5274725,112.1167883,112.5274725,116.8060837
1.71E+12,128,128,-1,-1,-1,-1,-9.749597303,8.032293986,-1.717303317,-9.899009985,112.5274725,112.1167883,112.5274725,116.8060837
1.71E+12,128,128,-1,-1,-1,-1,-9.747993128,8.025549371,-1.722443757,-9.904992745,112.5274725,112.1167883,112.5274725,116.8060837
1.71E+12,128,128,-1,-1,-1,-1,-9.746377203,8.018812756,-1.727564447,-9.910966127,112.5274725,112.1167883,112.5274725,116.8060837
1.71E+12,128,128,-1,-1,-1,-1,-9.744752885,8.012087265,-1.732665621,-9.916928531,112.5274725,112.1167883,112.5274725,116.8060837
1.71E+12,128,128,-1,-1,-1,-1,-9.743123522,8.005375983,-1.73774754,-9.92287838,112.5274725,112.1167883,112.5274725,116.8060837
1.71E+12,128,128,-1,-1,-1,-1,-9.741492454,7.998681923,-1.74281053,-9.928814119,112.5274725,112.1167883,112.5274725,116.8060837
1.71E+12,128,128,-1,-1,-1,-1,-9.739862999,7.992008013,-1.747854986,-9.934734202,112.5274725,112.1167883,112.5274725,116.8060837
1.71E+12,128,128,-1,-1,-1,-1,-9.738238468,7.985357117,-1.752881352,-9.940637075,112.5274725,112.1167883,112.5274725,116.8060837
1.71E+12,128,128,-1,-1,-1,-1,-9.736622188,7.978732034,-1.757890154,-9.94652125,112.5274725,112.1167883,112.5274725,116.8060837
1.71E+12,128,128,-1,-1,-1,-1,-9.735017568,7.972134943,-1.762882625,-9.952385487,112.5274725,112.1167883,112.5274725,116.8060837
1.71E+12,128,128,-1,-1,-1,-1,-9.733428051,7.965567431,-1.767860619,-9.958228775,112.5274725,112.1167883,112.5274725,116.8060837
1.71E+12,128,128,-1,-1,-1,-1,-9.731856948,7.959031022,-1.772825926,-9.964050134,112.5274725,112.1167883,112.5274725,116.8060837
1.71E+12,128,128,-1,-1,-1,-1,-9.730307441,7.952527152,-1.777780289,-9.969848575,112.5274725,112.1167883,112.5274725,116.8060837
1.71E+12,128,128,-1,-1,-1,-1,-9.728782604,7.946057197,-1.782725406,-9.975623106,112.5274725,112.1167883,112.5274725,116.8060837
1.71E+12,128,128,-1,-1,-1,-1,-9.727285432,7.93962248,-1.787662952,-9.981372769,112.5274725,112.1167883,112.5274725,116.8060837
1.71E+12,128,128,-1,-1,-1,-1,-9.725818846,7.933224195,-1.792594651,-9.987096656,112.5274725,112.1167883,112.5274725,116.8060837
1.71E+12,128,128,-1,-1,-1,-1,-9.724385691,7.926863369,-1.797522322,-9.992793885,112.5274725,112.1167883,112.5274725,116.8060837
1.71E+12,128,128,-1,-1,-1,-1,-9.722988742,7.920540865,-1.802447876,-9.998463634,112.5274725,112.1167883,112.5274725,116.8060837
1.71E+12,128,128,-1,-1,-1,-1,-9.721630673,7.914257384,-1.807373288,-10.00410515,112.5274725,112.1167883,112.5274725,116.8060837
1.71E+12,128,128,-1,-1,-1,-1,-9.720314025,7.908013486,-1.812300538,-10.00971774,112.5274725,112.1167883,112.5274725,116.8060837
1.71E+12,128,128,-1,-1,-1,-1,-9.719041207,7.90180958,-1.817231627,-10.01530074,112.5274725,112.1167883,112.5274725,116.8060837
1.71E+12,128,128,-1,-1,-1,-1,-9.717814503,7.895645912,-1.82216859,-10.02085354,112.5274725,112.1167883,112.5274725,116.8060837
1.71E+12,128,128,-1,-1,-1,-1,-9.716636062,7.889522548,-1.827113513,-10.02637563,112.5274725,112.1167883,112.5274725,116.8060837
1.71E+12,128,128,-1,-1,-1,-1,-9.715507915,7.883439371,-1.832068543,-10.03186655,112.5274725,112.1167883,112.5274725,116.8060837
1.71E+12,128,128,-1,-1,-1,-1,-9.71443197,7.877396091,-1.837035879,-10.03732593,112.5274725,112.1167883,112.5274725,116.8060837
1.71E+12,128,128,-1,-1,-1,-1,-9.71341,7.871392251,-1.842017749,-10.04275342,112.5274725,112.1167883,112.5274725,116.8060837
1.71E+12,128,128,-1,-1,-1,-1,-9.712443645,7.865427243,-1.847016402,-10.04814875,112.5274725,112.1167883,112.5274725,116.8060837
1.71E+12,128,128,-1,-1,-1,-1,-9.711534384,7.85950032,-1.852034064,-10.05351176,112.5274725,112.1167883,112.5274725,116.8060837
1.71E+12,128,128,-1,-1,-1,-1,-9.710683511,7.853610631,-1.85707288,-10.05884234,112.5274725,112.1167883,112.5274725,116.8060837
1.71E+12,128,128,-1,-1,-1,-1,-9.709892158,7.847757231,-1.862134927,-10.06414042,112.5274725,112.1167883,112.5274725,116.8060837
1.71E+12,128,128,-1,-1,-1,-1,-9.709161294,7.841939077,-1.867222217,-10.06940602,112.5274725,112.1167883,112.5274725,116.8060837
1.71E+12,128,128,-1,-1,-1,-1,-9.708491743,7.836154993,-1.872336749,-10.07463927,112.5274725,112.1167883,112.5274725,116.8060837
1.71E+12,128,128,-1,-1,-1,-1,-9.707884197,7.83040365,-1.877480546,-10.07984035,112.5274725,112.1167883,112.5274725,116.8060837
1.71E+12,128,128,-1,-1,-1,-1,-9.707339209,7.824683547,-1.882655662,-10.08500951,112.5274725,112.1167883,112.5274725,116.8060837
1.71E+12,128,128,-1,-1,-1,-1,-9.706857188,7.818993024,-1.887864164,-10.0901471,112.5274725,112.1167883,112.5274725,116.8060837
1.71E+12,128,128,-1,-1,-1,-1,-9.70643838,7.813330303,-1.893108077,-10.09525351,112.5274725,112.1167883,112.5274725,116.8060837
1.71E+12,128,128,-1,-1,-1,-1,-9.70608286,7.807693514,-1.898389347,-10.10032922,112.5274725,112.1167883,112.5274725,116.8060837
1.71E+12,128,128,-1,-1,-1,-1,-9.705790523,7.802080677,-1.903709847,-10.10537476,112.5274725,112.1167883,112.5274725,116.8060837
1.71E+12,128,128,-1,-1,-1,-1,-9.705561089,7.796489691,-1.909071398,-10.11039076,112.5274725,112.1167883,112.5274725,116.8060837
1.71E+12,128,128,-1,-1,-1,-1,-9.705394127,7.790918322,-1.914475805,-10.11537791,112.5274725,112.1167883,112.5274725,116.8060837
1.71E+12,128,128,-1,-1,-1,-1,-9.705289074,7.785364193,-1.919924881,-10.12033696,112.5274725,112.1167883,112.5274725,116.8060837
1.71E+12,128,128,-1,-1,-1,-1,-9.705245244,7.779824781,-1.925420463,-10.12526872,112.5274725,112.1167883,112.5274725,116.8060837
1.71E+12,128,128,-1,-1,-1,-1,-9.705261848,7.774297428,-1.930964419,-10.13017406,112.5274725,112.1167883,112.5274725,116.8060837
1.71E+12,128,128,-1,-1,-1,-1,-9.705337981,7.768779376,-1.936558605,-10.13505391,112.5274725,112.1167883,112.5274725,116.8060837
1.71E+12,128,128,-1,-1,-1,-1,-9.705472599,7.763267817,-1.942204782,-10.13990933,112.5274725,112.1167883,112.5274725,116.8060837
1.71E+12,128,128,-1,-1,-1,-1,-9.705664508,7.757759907,-1.947904601,-10.14474143,112.5274725,112.1167883,112.5274725,116.8060837
1.71E+12,128,128,-1,-1,-1,-1,-9.70591237,7.752252743,-1.953659627,-10.14955139,112.5274725,112.1167883,112.5274725,116.8060837
1.71E+12,128,128,-1,-1,-1,-1,-9.706214734,7.746743361,-1.959471373,-10.15434045,112.5274725,112.1167883,112.5274725,116.8060837
1.71E+12,128,128,-1,-1,-1,-1,-9.706570047,7.741228744,-1.965341303,-10.15910984,112.5274725,112.1167883,112.5274725,116.8060837
1.71E+12,128,128,-1,-1,-1,-1,-9.706976672,7.735705843,-1.971270829,-10.16386086,112.5274725,112.1167883,112.5274725,116.8060837
1.71E+12,128,128,-1,-1,-1,-1,-9.707432901,7.730171584,-1.977261317,-10.16859487,112.5274725,112.1167883,112.5274725,116.8060837
1.71E+12,128,128,-1,-1,-1,-1,-9.707936967,7.724622861,-1.983314106,-10.17331327,112.5274725,112.1167883,112.5274725,116.8060837
1.71E+12,128,128,-1,-1,-1,-1,-9.708487034,7.71905657,-1.989430464,-10.17801747,112.5274725,112.1167883,112.5274725,116.8060837
1.71E+12,128,128,-1,-1,-1,-1,-9.709081175,7.713469619,-1.995611555,-10.18270887,112.5274725,112.1167883,112.5274725,116.8060837
1.71E+12,128,128,-1,-1,-1,-1,-9.709717366,7.707858958,-2.001858408,-10.18738893,112.5274725,112.1167883,112.5274725,116.8060837
1.71E+12,128,128,-1,-1,-1,-1,-9.710393509,7.702221603,-2.008171906,-10.19205912,112.5274725,112.1167883,112.5274725,116.8060837
1.71E+12,128,128,-1,-1,-1,-1,-9.711107451,7.696554616,-2.014552835,-10.19672093,112.5274725,112.1167883,112.5274725,116.8060837
1.71E+12,128,128,-1,-1,-1,-1,-9.711857,7.690855101,-2.021001899,-10.20137583,112.5274725,112.1167883,112.5274725,116.8060837
1.71E+12,128,128,-1,-1,-1,-1,-9.712639978,7.685120095,-2.027519883,-10.20602533,112.5274725,112.1167883,112.5274725,116.8060837
1.71E+12,128,128,-1,-1,-1,-1,-9.713454236,7.679346579,-2.034107657,-10.21067082,112.5274725,112.1167883,112.5274725,116.8060837
1.71E+12,128,128,-1,-1,-1,-1,-9.714297659,7.673531639,-2.04076602,-10.21531372,112.5274725,112.1167883,112.5274725,116.8060837
1.71E+12,128,128,-1,-1,-1,-1,-9.715168212,7.667672502,-2.04749571,-10.21995544,112.5274725,112.1167883,112.5274725,116.8060837
1.71E+12,128,128,-1,-1,-1,-1,-9.716063973,7.66176649,-2.054297482,-10.22459736,112.5274725,112.1167883,112.5274725,116.8060837
1.71E+12,128,128,-1,-1,-1,-1,-9.716983143,7.65581096,-2.061172183,-10.22924081,112.5274725,112.1167883,112.5274725,116.8060837
1.71E+12,128,128,-1,-1,-1,-1,-9.717923992,7.64980327,-2.068120722,-10.23388713,112.5274725,112.1167883,112.5274725,116.8060837
1.71E+12,128,128,-1,-1,-1,-1,-9.718884754,7.643740622,-2.075144132,-10.23853756,112.5274725,112.1167883,112.5274725,116.8060837
1.71E+12,128,128,-1,-1,-1,-1,-9.71986356,7.637619965,-2.082243595,-10.24319331,112.5274725,112.1167883,112.5274725,116.8060837
1.71E+12,128,128,-1,-1,-1,-1,-9.720858414,7.631438047,-2.089420367,-10.2478555,112.5274725,112.1167883,112.5274725,116.8060837
1.71E+12,128,128,-1,-1,-1,-1,-9.721867203,7.625191563,-2.096675639,-10.25252519,112.5274725,112.1167883,112.5274725,116.8060837
1.71E+12,128,128,-1,-1,-1,-1,-9.722887663,7.618877489,-2.104010173,-10.25720338,112.5274725,112.1167883,112.5274725,116.8060837
1.71E+12,128,128,-1,-1,-1,-1,-9.723917207,7.612493272,-2.111423935,-10.26189109,112.5274725,112.1167883,112.5274725,116.8060837
1.71E+12,128,128,-1,-1,-1,-1,-9.724952832,7.606036675,-2.118916157,-10.26658925,112.5274725,112.1167883,112.5274725,116.8060837
1.71E+12,128,128,-1,-1,-1,-1,-9.725991325,7.599505699,-2.126485626,-10.27129876,112.5274725,112.1167883,112.5274725,116.8060837
1.71E+12,128,128,-1,-1,-1,-1,-9.727029578,7.592898766,-2.134130812,-10.27602041,112.5274725,112.1167883,112.5274725,116.8060837
1.71E+12,128,128,-1,-1,-1,-1,-9.728064701,7.586214809,-2.141849893,-10.2807549,112.5274725,112.1167883,112.5274725,116.8060837
1.71E+12,128,128,-1,-1,-1,-1,-9.729093994,7.57945318,-2.149640814,-10.28550285,112.5274725,112.1167883,112.5274725,116.8060837
1.71E+12,128,128,-1,-1,-1,-1,-9.730114948,7.572613598,-2.15750135,-10.2902648,112.5274725,112.1167883,112.5274725,116.8060837
1.71E+12,128,128,-1,-1,-1,-1,-9.731125246,7.56569614,-2.165429107,-10.29504121,112.5274725,112.1167883,112.5274725,116.8060837
1.71E+12,128,128,-1,-1,-1,-1,-9.732122727,7.55870117,-2.173421557,-10.29983247,112.5274725,112.1167883,112.5274725,116.8060837
1.71E+12,128,128,-1,-1,-1,-1,-9.733105338,7.551629286,-2.181476052,-10.30463892,112.5274725,112.1167883,112.5274725,116.8060837
1.71E+12,128,128,-1,-1,-1,-1,-9.734071158,7.544481234,-2.189589924,-10.30946082,112.5274725,112.1167883,112.5274725,116.8060837
1.71E+12,128,128,-1,-1,-1,-1,-9.7350184,7.537257819,-2.197760581,-10.31429838,112.5274725,112.1167883,112.5274725,116.8060837
1.71E+12,128,128,-1,-1,-1,-1,-9.735945371,7.529959917,-2.205985454,-10.31915177,112.5274725,112.1167883,112.5274725,116.8060837
1.71E+12,128,128,-1,-1,-1,-1,-9.736850464,7.522588493,-2.214261972,-10.32402114,112.5274725,112.1167883,112.5274725,116.8060837
1.71E+12,128,128,-1,-1,-1,-1,-9.737732178,7.515144611,-2.222587567,-10.32890656,112.5274725,112.1167883,112.5274725,116.8060837
1.71E+12,128,128,-1,-1,-1,-1,-9.738589101,7.507629439,-2.230959662,-10.33380805,112.5274725,112.1167883,112.5274725,116.8060837
1.71E+12,128,128,-1,-1,-1,-1,-9.739419893,7.500044278,-2.239375615,-10.3387256,112.5274725,112.1167883,112.5274725,116.8060837
1.71E+12,128,128,-1,-1,-1,-1,-9.740223296,7.492390608,-2.247832688,-10.34365913,112.5274725,112.1167883,112.5274725,116.8060837
1.71E+12,128,128,-1,-1,-1,-1,-9.740998136,7.484670077,-2.256328059,-10.34860852,112.5274725,112.1167883,112.5274725,116.8060837
1.71E+12,128,128,-1,-1,-1,-1,-9.74174331,7.476884498,-2.264858812,-10.35357359,112.5274725,112.1167883,112.5274725,116.8060837
1.71E+12,128,128,-1,-1,-1,-1,-9.74245777,7.469035855,-2.273421915,-10.35855409,112.5274725,112.1167883,112.5274725,116.8060837
1.71E+12,128,128,-1,-1,-1,-1,-9.743140526,7.461126289,-2.282014236,-10.36354973,112.5274725,112.1167883,112.5274725,116.8060837
1.71E+12,128,128,-1,-1,-1,-1,-9.743790651,7.453158107,-2.290632545,-10.3685602,112.5274725,112.1167883,112.5274725,116.8060837
1.71E+12,128,128,-1,-1,-1,-1,-9.744407271,7.445133771,-2.299273501,-10.37358504,112.5274725,112.1167883,112.5274725,116.8060837
1.71E+12,128,128,-1,-1,-1,-1,-9.744989544,7.437055882,-2.307933662,-10.37862381,112.5274725,112.1167883,112.5274725,116.8060837
1.71E+12,128,128,-1,-1,-1,-1,-9.745536671,7.428927166,-2.316609505,-10.383676,112.5274725,112.1167883,112.5274725,116.8060837
1.71E+12,128,128,-1,-1,-1,-1,-9.74604791,7.420750466,-2.325297444,-10.38874102,112.5274725,112.1167883,112.5274725,116.8060837
1.71E+12,128,128,-1,-1,-1,-1,-9.746522572,7.412528726,-2.333993846,-10.39381823,112.5274725,112.1167883,112.5274725,116.8060837
1.71E+12,128,128,-1,-1,-1,-1,-9.746960036,7.404265148,-2.342694888,-10.39890678,112.5274725,112.1167883,112.5274725,116.8060837
1.71E+12,128,128,-1,-1,-1,-1,-9.747359759,7.395963189,-2.35139657,-10.40400554,112.5274725,112.1167883,112.5274725,116.8060837
1.71E+12,128,128,-1,-1,-1,-1,-9.747721264,7.387626378,-2.360094886,-10.40911335,112.5274725,112.1167883,112.5274725,116.8060837
1.71E+12,128,128,-1,-1,-1,-1,-9.748044132,7.379258309,-2.368785823,-10.41422903,112.5274725,112.1167883,112.5274725,116.8060837
1.71E+12,128,128,-1,-1,-1,-1,-9.748327986,7.370862666,-2.37746532,-10.41935134,112.5274725,112.1167883,112.5274725,116.8060837
1.71E+12,128,128,-1,-1,-1,-1,-9.748572487,7.362443232,-2.386129256,-10.42447903,112.5274725,112.1167883,112.5274725,116.8060837
1.71E+12,128,128,-1,-1,-1,-1,-9.748777329,7.354003871,-2.394773458,-10.42961078,112.5274725,112.1167883,112.5274725,116.8060837
1.71E+12,128,128,-1,-1,-1,-1,-9.748942232,7.345548513,-2.403393719,-10.43474526,112.5274725,112.1167883,112.5274725,116.8060837
1.71E+12,128,128,-1,-1,-1,-1,-9.749066961,7.337081113,-2.411985848,-10.43988111,112.5274725,112.1167883,112.5274725,116.8060837
1.71E+12,128,128,-1,-1,-1,-1,-9.749151341,7.328605614,-2.420545727,-10.44501693,112.5274725,112.1167883,112.5274725,116.8060837
1.71E+12,128,128,-1,-1,-1,-1,-9.749195243,7.320125937,-2.429069307,-10.45015136,112.5274725,112.1167883,112.5274725,116.8060837
1.71E+12,128,128,-1,-1,-1,-1,-9.749198581,7.311646007,-2.437552574,-10.45528306,112.5274725,112.1167883,112.5274725,116.8060837
1.71E+12,128,128,-1,-1,-1,-1,-9.749161307,7.303169765,-2.445991542,-10.46041063,112.5274725,112.1167883,112.5274725,116.8060837
1.71E+12,128,128,-1,-1,-1,-1,-9.749083405,7.294701148,-2.454382257,-10.46553267,112.5274725,112.1167883,112.5274725,116.8060837
1.71E+12,128,128,-1,-1,-1,-1,-9.748964901,7.286244106,-2.462720795,-10.47064779,112.5274725,112.1167883,112.5274725,116.8060837
1.71E+12,128,128,-1,-1,-1,-1,-9.748805857,7.277802593,-2.471003265,-10.47575458,112.5274725,112.1167883,112.5274725,116.8060837
1.71E+12,128,128,-1,-1,-1,-1,-9.748606358,7.269380531,-2.479225827,-10.48085164,112.5274725,112.1167883,112.5274725,116.8060837
1.71E+12,128,128,-1,-1,-1,-1,-9.74836652,7.260981792,-2.487384728,-10.48593761,112.5274725,112.1167883,112.5274725,116.8060837
1.71E+12,128,128,-1,-1,-1,-1,-9.748086513,7.252610199,-2.495476315,-10.49101118,112.5274725,112.1167883,112.5274725,116.8060837
1.71E+12,128,128,-1,-1,-1,-1,-9.74776655,7.244269508,-2.503497042,-10.49607103,112.5274725,112.1167883,112.5274725,116.8060837
1.71E+12,128,128,-1,-1,-1,-1,-9.747406887,7.235963404,-2.511443483,-10.50111581,112.5274725,112.1167883,112.5274725,116.8060837
1.71E+12,128,128,-1,-1,-1,-1,-9.74700782,7.227695496,-2.519312323,-10.50614422,112.5274725,112.1167883,112.5274725,116.8060837
1.71E+12,128,128,-1,-1,-1,-1,-9.746569667,7.219469309,-2.527100358,-10.51115496,112.5274725,112.1167883,112.5274725,116.8060837
1.71E+12,128,128,-1,-1,-1,-1,-9.746092774,7.21128828,-2.534804494,-10.51614671,112.5274725,112.1167883,112.5274725,116.8060837
1.71E+12,128,128,-1,-1,-1,-1,-9.745577515,7.203155781,-2.542421734,-10.52111821,112.5274725,112.1167883,112.5274725,116.8060837
1.71E+12,128,128,-1,-1,-1,-1,-9.745024302,7.195075116,-2.549949187,-10.5260683,112.5274725,112.1167883,112.5274725,116.8060837
1.71E+12,128,128,-1,-1,-1,-1,-9.744433607,7.187049465,-2.557384142,-10.53099581,112.5274725,112.1167883,112.5274725,116.8060837
1.71E+12,128,128,-1,-1,-1,-1,-9.743805965,7.179081867,-2.564724098,-10.53589966,112.5274725,112.1167883,112.5274725,116.8060837
1.71E+12,128,128,-1,-1,-1,-1,-9.743141962,7.171175194,-2.571966768,-10.54077881,112.5274725,112.1167883,112.5274725,116.8060837
1.71E+12,128,128,-1,-1,-1,-1,-9.742442215,7.163332155,-2.579110059,-10.54563224,112.5274725,112.1167883,112.5274725,116.8060837
1.71E+12,128,128,-1,-1,-1,-1,-9.741707361,7.155555309,-2.586152052,-10.55045901,112.5274725,112.1167883,112.5274725,116.8060837
1.71E+12,128,128,-1,-1,-1,-1,-9.740938078,7.14784707,-2.593091007,-10.55525822,112.5274725,112.1167883,112.5274725,116.8060837
1.71E+12,128,128,-1,-1,-1,-1,-9.740135073,7.14020971,-2.599925363,-10.56002903,112.5274725,112.1167883,112.5274725,116.8060837
1.71E+12,128,128,-1,-1,-1,-1,-9.73929907,7.132645342,-2.606653729,-10.56477063,112.5274725,112.1167883,112.5274725,116.8060837
1.71E+12,128,128,-1,-1,-1,-1,-9.73843084,7.125155925,-2.613274915,-10.56948228,112.5274725,112.1167883,112.5274725,116.8060837
1.71E+12,128,128,-1,-1,-1,-1,-9.737531216,7.117743256,-2.61978796,-10.57416331,112.5274725,112.1167883,112.5274725,116.8060837
1.71E+12,128,128,-1,-1,-1,-1,-9.736601067,7.110408956,-2.626192111,-10.57881312,112.5274725,112.1167883,112.5274725,116.8060837
1.71E+12,128,128,-1,-1,-1,-1,-9.7356413,7.103154498,-2.632486802,-10.58343115,112.5274725,112.1167883,112.5274725,116.8060837
1.71E+12,128,128,-1,-1,-1,-1,-9.734652846,7.09598121,-2.638671636,-10.58801688,112.5274725,112.1167883,112.5274725,116.8060837
1.71E+12,128,128,-1,-1,-1,-1,-9.733636665,7.08889028,-2.644746385,-10.59256981,112.5274725,112.1167883,112.5274725,116.8060837
1.71E+12,128,128,-1,-1,-1,-1,-9.73259375,7.081882747,-2.650711003,-10.59708953,112.5274725,112.1167883,112.5274725,116.8060837
1.71E+12,128,128,-1,-1,-1,-1,-9.731525118,7.074959491,-2.656565627,-10.60157566,112.5274725,112.1167883,112.5274725,116.8060837
1.71E+12,128,128,-1,-1,-1,-1,-9.730431826,7.068121239,-2.662310587,-10.60602785,112.5274725,112.1167883,112.5274725,116.8060837
1.71E+12,128,128,-1,-1,-1,-1,-9.729314984,7.061368539,-2.667946445,-10.61044583,112.5274725,112.1167883,112.5274725,116.8060837
1.71E+12,128,128,-1,-1,-1,-1,-9.728175756,7.054701751,-2.673474005,-10.61482933,112.5274725,112.1167883,112.5274725,116.8060837
1.71E+12,128,128,-1,-1,-1,-1,-9.727015337,7.048121065,-2.678894273,-10.61917818,112.5274725,112.1167883,112.5274725,116.8060837
1.71E+12,128,128,-1,-1,-1,-1,-9.725834947,7.041626509,-2.684208438,-10.62349228,112.5274725,112.1167883,112.5274725,116.8060837
1.71E+12,128,128,-1,-1,-1,-1,-9.724635837,7.03521798,-2.689417857,-10.62777159,112.5274725,112.1167883,112.5274725,116.8060837
1.71E+12,128,128,-1,-1,-1,-1,-9.7234193,7.028895249,-2.694524051,-10.63201611,112.5274725,112.1167883,112.5274725,116.8060837
1.71E+12,128,128,-1,-1,-1,-1,-9.72218665,7.02265796,-2.69952869,-10.6362259,112.5274725,112.1167883,112.5274725,116.8060837
1.71E+12,128,128,-1,-1,-1,-1,-9.720939187,7.016505576,-2.704433612,-10.64040126,112.5274725,112.1167883,112.5274725,116.8060837
1.71E+12,128,128,-1,-1,-1,-1,-9.719678233,7.010437348,-2.709240885,-10.64454265,112.5274725,112.1167883,112.5274725,116.8060837
1.71E+12,128,128,-1,-1,-1,-1,-9.718405162,7.004452368,-2.713952795,-10.64865062,112.5274725,112.1167883,112.5274725,116.8060837
1.71E+12,128,128,-1,-1,-1,-1,-9.717121384,6.998549589,-2.718571796,-10.65272573,112.5274725,112.1167883,112.5274725,116.8060837
1.71E+12,128,128,-1,-1,-1,-1,-9.715828316,6.992727858,-2.723100458,-10.65676859,112.5274725,112.1167883,112.5274725,116.8060837
1.71E+12,128,128,-1,-1,-1,-1,-9.714527363,6.98698592,-2.727541443,-10.66077988,112.5274725,112.1167883,112.5274725,116.8060837
1.71E+12,128,128,-1,-1,-1,-1,-9.713219932,6.981322422,-2.73189751,-10.66476038,112.5274725,112.1167883,112.5274725,116.8060837
1.71E+12,128,128,-1,-1,-1,-1,-9.711907447,6.975735931,-2.736171515,-10.6687109,112.5274725,112.1167883,112.5274725,116.8060837
1.71E+12,128,128,-1,-1,-1,-1,-9.710591354,6.97022491,-2.740366444,-10.67263232,112.5274725,112.1167883,112.5274725,116.8060837
1.71E+12,128,128,-1,-1,-1,-1,-9.709273152,6.964787692,-2.744485461,-10.67652553,112.5274725,112.1167883,112.5274725,116.8060837
1.71E+12,128,128,-1,-1,-1,-1,-9.707954404,6.959422476,-2.748531929,-10.68039152,112.5274725,112.1167883,112.5274725,116.8060837
1.71E+12,128,128,-1,-1,-1,-1,-9.706636717,6.954127337,-2.75250938,-10.6842313,112.5274725,112.1167883,112.5274725,116.8060837
1.71E+12,128,128,-1,-1,-1,-1,-9.705321711,6.948900266,-2.756421445,-10.68804591,112.5274725,112.1167883,112.5274725,116.8060837
1.71E+12,128,128,-1,-1,-1,-1,-9.704010981,6.943739185,-2.760271796,-10.69183648,112.5274725,112.1167883,112.5274725,116.8060837
1.71E+12,128,128,-1,-1,-1,-1,-9.7027061,6.938641967,-2.764064133,-10.69560416,112.5274725,112.1167883,112.5274725,116.8060837
1.71E+12,128,128,-1,-1,-1,-1,-9.701408634,6.933606439,-2.767802195,-10.69935007,112.5274725,112.1167883,112.5274725,116.8060837
1.71E+12,128,128,-1,-1,-1,-1,-9.700120163,6.928630377,-2.771489786,-10.7030754,112.5274725,112.1167883,112.5274725,116.8060837
1.71E+12,128,128,-1,-1,-1,-1,-9.698842289,6.923711484,-2.775130805,-10.70678141,112.5274725,112.1167883,112.5274725,116.8060837
1.71E+12,128,128,-1,-1,-1,-1,-9.697576652,6.918847368,-2.778729284,-10.71046937,112.5274725,112.1167883,112.5274725,116.8060837
1.71E+12,128,128,-1,-1,-1,-1,-9.696324918,6.914035559,-2.782289359,-10.7141406,112.5274725,112.1167883,112.5274725,116.8060837
1.71E+12,128,128,-1,-1,-1,-1,-9.695088764,6.909273545,-2.78581522,-10.71779646,112.5274725,112.1167883,112.5274725,116.8060837
1.71E+12,128,128,-1,-1,-1,-1,-9.693869858,6.904558786,-2.789311072,-10.72143835,112.5274725,112.1167883,112.5274725,116.8060837
1.71E+12,128,128,-1,-1,-1,-1,-9.692669835,6.899888754,-2.792781082,-10.7250677,112.5274725,112.1167883,112.5274725,116.8060837
1.71E+12,128,128,-1,-1,-1,-1,-9.6914903,6.895260945,-2.796229355,-10.72868592,112.5274725,112.1167883,112.5274725,116.8060837
1.71E+12,128,128,-1,-1,-1,-1,-9.690332838,6.890672878,-2.79965996,-10.73229448,112.5274725,112.1167883,112.5274725,116.8060837
1.71E+12,128,128,-1,-1,-1,-1,-9.689199028,6.886122075,-2.803076953,-10.73589485,112.5274725,112.1167883,112.5274725,116.8060837
1.71E+12,128,128,-1,-1,-1,-1,-9.688090436,6.881606045,-2.806484391,-10.7394885,112.5274725,112.1167883,112.5274725,116.8060837
1.71E+12,128,128,-1,-1,-1,-1,-9.687008624,6.877122229,-2.809886395,-10.74307696,112.5274725,112.1167883,112.5274725,116.8060837
1.71E+12,128,128,-1,-1,-1,-1,-9.685955155,6.872668026,-2.813287129,-10.74666177,112.5274725,112.1167883,112.5274725,116.8060837
1.71E+12,128,128,-1,-1,-1,-1,-9.684931579,6.868240849,-2.81669073,-10.75024452,112.5274725,112.1167883,112.5274725,116.8060837
1.71E+12,128,128,-1,-1,-1,-1,-9.683939418,6.863838119,-2.820101299,-10.75382678,112.5274725,112.1167883,112.5274725,116.8060837
1.71E+12,128,128,-1,-1,-1,-1,-9.682980138,6.859457268,-2.82352287,-10.75741012,112.5274725,112.1167883,112.5274725,116.8060837
1.71E+12,128,128,-1,-1,-1,-1,-9.68205513,6.855095751,-2.826959379,-10.76099611,112.5274725,112.1167883,112.5274725,116.8060837
1.71E+12,128,128,-1,-1,-1,-1,-9.681165741,6.850751076,-2.830414664,-10.76458629,112.5274725,112.1167883,112.5274725,116.8060837
1.71E+12,128,128,-1,-1,-1,-1,-9.680313267,6.846420769,-2.833892498,-10.76818224,112.5274725,112.1167883,112.5274725,116.8060837
1.71E+12,128,128,-1,-1,-1,-1,-9.679498983,6.842102363,-2.837396619,-10.77178554,112.5274725,112.1167883,112.5274725,116.8060837
1.71E+12,128,128,-1,-1,-1,-1,-9.678724153,6.837793421,-2.840930732,-10.77539773,112.5274725,112.1167883,112.5274725,116.8060837
1.71E+12,128,128,-1,-1,-1,-1,-9.67799001,6.833491518,-2.844498492,-10.77902038,112.5274725,112.1167883,112.5274725,116.8060837
1.71E+12,128,128,-1,-1,-1,-1,-9.677297729,6.829194238,-2.848103491,-10.78265506,112.5274725,112.1167883,112.5274725,116.8060837
1.71E+12,128,128,-1,-1,-1,-1,-9.676648424,6.824899211,-2.851749213,-10.78630331,112.5274725,112.1167883,112.5274725,116.8060837
1.71E+12,128,128,-1,-1,-1,-1,-9.676043136,6.820604156,-2.85543898,-10.78996668,112.5274725,112.1167883,112.5274725,116.8060837
1.71E+12,128,128,-1,-1,-1,-1,-9.675482817,6.816306849,-2.859175968,-10.79364668,112.5274725,112.1167883,112.5274725,116.8060837
1.71E+12,128,128,-1,-1,-1,-1,-9.674968357,6.812005092,-2.862963265,-10.79734479,112.5274725,112.1167883,112.5274725,116.8060837
1.71E+12,128,128,-1,-1,-1,-1,-9.674500597,6.807696691,-2.866803906,-10.80106249,112.5274725,112.1167883,112.5274725,116.8060837
1.71E+12,128,128,-1,-1,-1,-1,-9.674080333,6.803379436,-2.870700897,-10.80480127,112.5274725,112.1167883,112.5274725,116.8060837
1.71E+12,128,128,-1,-1,-1,-1,-9.673708314,6.799051121,-2.874657192,-10.80856256,112.5274725,112.1167883,112.5274725,116.8060837
1.71E+12,128,128,-1,-1,-1,-1,-9.673385219,6.794709587,-2.878675632,-10.81234776,112.5274725,112.1167883,112.5274725,116.8060837
1.71E+12,128,128,-1,-1,-1,-1,-9.673111647,6.79035274,-2.882758907,-10.81615823,112.5274725,112.1167883,112.5274725,116.8060837
1.71E+12,128,128,-1,-1,-1,-1,-9.67288811,6.785978556,-2.886909553,-10.81999529,112.5274725,112.1167883,112.5274725,116.8060837
1.71E+12,128,128,-1,-1,-1,-1,-9.672715019,6.781585068,-2.891129951,-10.82386025,112.5274725,112.1167883,112.5274725,116.8060837
1.71E+12,128,128,-1,-1,-1,-1,-9.672592694,6.777170125,-2.895422569,-10.82775461,112.5274725,112.1167883,112.5274725,116.8060837
1.71E+12,128,128,-1,-1,-1,-1,-9.672521374,6.772731377,-2.899789997,-10.83168004,112.5274725,112.1167883,112.5274725,116.8060837
1.71E+12,128,128,-1,-1,-1,-1,-9.672501217,6.768266463,-2.904234755,-10.83563822,112.5274725,112.1167883,112.5274725,116.8060837
1.71E+12,128,128,-1,-1,-1,-1,-9.672532302,6.763772996,-2.908759306,-10.8396308,112.5274725,112.1167883,112.5274725,116.8060837
1.71E+12,128,128,-1,-1,-1,-1,-9.672614637,6.759248553,-2.913366084,-10.84365943,112.5274725,112.1167883,112.5274725,116.8060837
1.71E+12,128,128,-1,-1,-1,-1,-9.67274817,6.754690683,-2.918057487,-10.84772567,112.5274725,112.1167883,112.5274725,116.8060837
1.71E+12,128,128,-1,-1,-1,-1,-9.672932772,6.750096945,-2.922835827,-10.85183109,112.5274725,112.1167883,112.5274725,116.8060837
1.71E+12,128,128,-1,-1,-1,-1,-9.673168227,6.745464909,-2.927703317,-10.85597716,112.5274725,112.1167883,112.5274725,116.8060837
1.71E+12,128,128,-1,-1,-1,-1,-9.673454219,6.740792142,-2.932662077,-10.86016537,112.5274725,112.1167883,112.5274725,116.8060837
1.71E+12,128,128,-1,-1,-1,-1,-9.673790331,6.736076217,-2.937714114,-10.86439719,112.5274725,112.1167883,112.5274725,116.8060837
1.71E+12,128,128,-1,-1,-1,-1,-9.674176053,6.731314712,-2.942861341,-10.86867404,112.5274725,112.1167883,112.5274725,116.8060837
1.71E+12,128,128,-1,-1,-1,-1,-9.6746107,6.726505749,-2.948104951,-10.87299705,112.5274725,112.1167883,112.5274725,116.8060837
1.71E+12,128,128,-1,-1,-1,-1,-9.675093434,6.721647937,-2.953445497,-10.87736716,112.5274725,112.1167883,112.5274725,116.8060837
1.71E+12,128,128,-1,-1,-1,-1,-9.675623396,6.716739826,-2.95888357,-10.88178527,112.5274725,112.1167883,112.5274725,116.8060837
1.71E+12,128,128,-1,-1,-1,-1,-9.676199709,6.711779949,-2.96441976,-10.88625226,112.5274725,112.1167883,112.5274725,116.8060837
1.71E+12,128,128,-1,-1,-1,-1,-9.676821435,6.706766833,-2.970054601,-10.89076904,112.5274725,112.1167883,112.5274725,116.8060837
1.71E+12,128,128,-1,-1,-1,-1,-9.677487562,6.701699029,-2.975788533,-10.89533651,112.5274725,112.1167883,112.5274725,116.8060837
1.71E+12,128,128,-1,-1,-1,-1,-9.67819701,6.696575134,-2.981621876,-10.89995552,112.5274725,112.1167883,112.5274725,116.8060837
1.71E+12,128,128,-1,-1,-1,-1,-9.678948646,6.691393762,-2.987554884,-10.90462689,112.5274725,112.1167883,112.5274725,116.8060837
1.71E+12,128,128,-1,-1,-1,-1,-9.679741288,6.686153536,-2.993587752,-10.90935143,112.5274725,112.1167883,112.5274725,116.8060837
1.71E+12,128,128,-1,-1,-1,-1,-9.680573703,6.680853084,-2.999720619,-10.91412988,112.5274725,112.1167883,112.5274725,116.8060837
1.71E+12,128,128,-1,-1,-1,-1,-9.681444613,6.67549103,-3.005953584,-10.91896295,112.5274725,112.1167883,112.5274725,116.8060837
1.71E+12,128,128,-1,-1,-1,-1,-9.682352703,6.670065988,-3.012286715,-10.9238513,112.5274725,112.1167883,112.5274725,116.8060837
1.71E+12,128,128,-1,-1,-1,-1,-9.683296606,6.664576585,-3.018720021,-10.92879558,112.5274725,112.1167883,112.5274725,116.8060837
1.71E+12,128,128,-1,-1,-1,-1,-9.684274884,6.659021474,-3.02525341,-10.93379635,112.5274725,112.1167883,112.5274725,116.8060837
1.71E+12,128,128,-1,-1,-1,-1,-9.685286024,6.653399372,-3.031886652,-10.93885414,112.5274725,112.1167883,112.5274725,116.8060837
1.71E+12,128,128,-1,-1,-1,-1,-9.686328454,6.647709061,-3.038619393,-10.94396946,112.5274725,112.1167883,112.5274725,116.8060837
1.71E+12,128,128,-1,-1,-1,-1,-9.687400563,6.641949363,-3.0454512,-10.94914272,112.5274725,112.1167883,112.5274725,116.8060837
1.71E+12,128,128,-1,-1,-1,-1,-9.688500693,6.636119124,-3.052381569,-10.95437433,112.5274725,112.1167883,112.5274725,116.8060837
1.71E+12,128,128,-1,-1,-1,-1,-9.689627169,6.630217221,-3.059409948,-10.95966465,112.5274725,112.1167883,112.5274725,116.8060837
1.71E+12,128,128,-1,-1,-1,-1,-9.690778324,6.624242554,-3.06653577,-10.96501398,112.5274725,112.1167883,112.5274725,116.8060837
1.71E+12,128,128,-1,-1,-1,-1,-9.691952476,6.618194053,-3.073758423,-10.97042256,112.5274725,112.1167883,112.5274725,116.8060837
1.71E+12,128,128,-1,-1,-1,-1,-9.69314792,6.612070712,-3.081077208,-10.97589064,112.5274725,112.1167883,112.5274725,116.8060837
1.71E+12,128,128,-1,-1,-1,-1,-9.694362917,6.605871592,-3.088491325,-10.98141833,112.5274725,112.1167883,112.5274725,116.8060837
1.71E+12,128,128,-1,-1,-1,-1,-9.695595684,6.599595829,-3.095999855,-10.9870057,112.5274725,112.1167883,112.5274725,116.8060837
1.71E+12,128,128,-1,-1,-1,-1,-9.696844408,6.593242646,-3.103601761,-10.99265276,112.5274725,112.1167883,112.5274725,116.8060837
1.71E+12,128,128,-1,-1,-1,-1,-9.698107261,6.586811334,-3.111295928,-10.99835947,112.5274725,112.1167883,112.5274725,116.8060837
1.71E+12,128,128,-1,-1,-1,-1,-9.699382427,6.580301232,-3.119081195,-11.00412569,112.5274725,112.1167883,112.5274725,116.8060837
1.71E+12,128,128,-1,-1,-1,-1,-9.700668109,6.573711737,-3.126956372,-11.00995122,112.5274725,112.1167883,112.5274725,116.8060837
1.71E+12,128,128,-1,-1,-1,-1,-9.701962534,6.567042311,-3.134920223,-11.01583582,112.5274725,112.1167883,112.5274725,116.8060837
1.71E+12,128,128,-1,-1,-1,-1,-9.703263946,6.560292487,-3.142971459,-11.0217792,112.5274725,112.1167883,112.5274725,116.8060837
1.71E+12,128,128,-1,-1,-1,-1,-9.7045706,6.553461895,-3.151108705,-11.02778095,112.5274725,112.1167883,112.5274725,116.8060837
1.71E+12,128,128,-1,-1,-1,-1,-9.705880742,6.546550295,-3.159330448,-11.03384064,112.5274725,112.1167883,112.5274725,116.8060837
1.71E+12,128,128,-1,-1,-1,-1,-9.70719261,6.539557597,-3.167635013,-11.0399578,112.5274725,112.1167883,112.5274725,116.8060837
1.71E+12,128,128,-1,-1,-1,-1,-9.708504426,6.532483836,-3.17602059,-11.04613188,112.5274725,112.1167883,112.5274725,116.8060837
1.71E+12,128,128,-1,-1,-1,-1,-9.709814426,6.525329145,-3.184485281,-11.05236225,112.5274725,112.1167883,112.5274725,116.8060837
1.71E+12,128,128,-1,-1,-1,-1,-9.711120886,6.518093751,-3.193027136,-11.05864817,112.5274725,112.1167883,112.5274725,116.8060837
1.71E+12,128,128,-1,-1,-1,-1,-9.712422135,6.510777986,-3.201644149,-11.06498885,112.5274725,112.1167883,112.5274725,116.8060837
1.71E+12,128,128,-1,-1,-1,-1,-9.713716536,6.503382274,-3.210334261,-11.07138347,112.5274725,112.1167883,112.5274725,116.8060837
1.71E+12,128,128,-1,-1,-1,-1,-9.715002484,6.495907124,-3.219095359,-11.0778311,112.5274725,112.1167883,112.5274725,116.8060837
1.71E+12,128,128,-1,-1,-1,-1,-9.716278398,6.488353163,-3.227925235,-11.0843308,112.5274725,112.1167883,112.5274725,116.8060837
1.71E+12,128,128,-1,-1,-1,-1,-9.717542704,6.480721134,-3.23682157,-11.0908815,112.5274725,112.1167883,112.5274725,116.8060837
1.71E+12,128,128,-1,-1,-1,-1,-9.71879384,6.473011915,-3.245781925,-11.09748208,112.5274725,112.1167883,112.5274725,116.8060837
1.71E+12,128,128,-1,-1,-1,-1,-9.720030267,6.465226516,-3.254803751,-11.10413138,112.5274725,112.1167883,112.5274725,116.8060837
1.71E+12,128,128,-1,-1,-1,-1,-9.721250491,6.457366067,-3.263884424,-11.11082817,112.5274725,112.1167883,112.5274725,116.8060837
1.71E+12,128,128,-1,-1,-1,-1,-9.72245308,6.449431799,-3.273021281,-11.1175712,112.5274725,112.1167883,112.5274725,116.8060837
1.71E+12,128,128,-1,-1,-1,-1,-9.723636672,6.441425013,-3.282211659,-11.12435914,112.5274725,112.1167883,112.5274725,116.8060837
1.71E+12,128,128,-1,-1,-1,-1,-9.724799962,6.433347106,-3.291452856,-11.13119056,112.5274725,112.1167883,112.5274725,116.8060837
1.71E+12,128,128,-1,-1,-1,-1,-9.72594167,6.42519961,-3.300742059,-11.13806401,112.5274725,112.1167883,112.5274725,116.8060837
1.71E+12,128,128,-1,-1,-1,-1,-9.727060538,6.416984187,-3.310076351,-11.14497795,112.5274725,112.1167883,112.5274725,116.8060837
1.71E+12,128,128,-1,-1,-1,-1,-9.728155329,6.408702661,-3.319452668,-11.15193082,112.5274725,112.1167883,112.5274725,116.8060837
1.71E+12,128,128,-1,-1,-1,-1,-9.729224829,6.400357045,-3.328867784,-11.15892099,112.5274725,112.1167883,112.5274725,116.8060837
1.71E+12,128,128,-1,-1,-1,-1,-9.73026786,6.391949472,-3.338318388,-11.16594681,112.5274725,112.1167883,112.5274725,116.8060837
1.71E+12,128,128,-1,-1,-1,-1,-9.73128331,6.383482123,-3.347801187,-11.17300655,112.5274725,112.1167883,112.5274725,116.8060837
1.71E+12,128,128,-1,-1,-1,-1,-9.732270159,6.374957217,-3.357312942,-11.18009843,112.5274725,112.1167883,112.5274725,116.8060837
1.71E+12,128,128,-1,-1,-1,-1,-9.733227452,6.366377033,-3.366850419,-11.18722063,112.5274725,112.1167883,112.5274725,116.8060837
1.71E+12,128,128,-1,-1,-1,-1,-9.734154281,6.357743938,-3.376410343,-11.19437122,112.5274725,112.1167883,112.5274725,116.8060837
1.71E+12,128,128,-1,-1,-1,-1,-9.735049758,6.349060395,-3.385989363,-11.2015482,112.5274725,112.1167883,112.5274725,116.8060837
1.71E+12,128,128,-1,-1,-1,-1,-9.735913014,6.340328967,-3.395584047,-11.20874954,112.5274725,112.1167883,112.5274725,116.8060837
1.71E+12,128,128,-1,-1,-1,-1,-9.736743204,6.331552327,-3.405190877,-11.21597319,112.5274725,112.1167883,112.5274725,116.8060837
1.71E+12,128,128,-1,-1,-1,-1,-9.737539514,6.32273326,-3.414806255,-11.22321708,112.5274725,112.1167883,112.5274725,116.8060837
1.71E+12,128,128,-1,-1,-1,-1,-9.738301182,6.31387462,-3.424426563,-11.23047907,112.5274725,112.1167883,112.5274725,116.8060837
1.71E+12,128,128,-1,-1,-1,-1,-9.739027513,6.304979286,-3.434048226,-11.23775701,112.5274725,112.1167883,112.5274725,116.8060837
1.71E+12,128,128,-1,-1,-1,-1,-9.739717871,6.296050182,-3.443667688,-11.24504872,112.5274725,112.1167883,112.5274725,116.8060837
1.71E+12,128,128,-1,-1,-1,-1,-9.74037168,6.287090294,-3.453281386,-11.25235198,112.5274725,112.1167883,112.5274725,116.8060837
1.71E+12,128,128,-1,-1,-1,-1,-9.740988397,6.278102665,-3.462885733,-11.25966457,112.5274725,112.1167883,112.5274725,116.8060837
1.71E+12,128,128,-1,-1,-1,-1,-9.741567489,6.269090388,-3.472477101,-11.26698424,112.5274725,112.1167883,112.5274725,116.8060837
1.71E+12,128,128,-1,-1,-1,-1,-9.742108447,6.260056609,-3.482051838,-11.27430871,112.5274725,112.1167883,112.5274725,116.8060837
1.71E+12,128,128,-1,-1,-1,-1,-9.742610795,6.251004493,-3.491606302,-11.2816356,112.5274725,112.1167883,112.5274725,116.8060837
1.71E+12,128,128,-1,-1,-1,-1,-9.743074094,6.241937231,-3.501136863,-11.28896258,112.5274725,112.1167883,112.5274725,116.8060837
1.71E+12,128,128,-1,-1,-1,-1,-9.743497958,6.232858049,-3.510639909,-11.29628727,112.5274725,112.1167883,112.5274725,116.8060837
1.71E+12,128,128,-1,-1,-1,-1,-9.743882068,6.223770155,-3.520111913,-11.30360733,112.5274725,112.1167883,112.5274725,116.8060837
1.71E+12,128,128,-1,-1,-1,-1,-9.744226155,6.214676717,-3.529549437,-11.3109204,112.5274725,112.1167883,112.5274725,116.8060837
1.71E+12,128,128,-1,-1,-1,-1,-9.744529984,6.205580902,-3.538949082,-11.31822414,112.5274725,112.1167883,112.5274725,116.8060837
1.71E+12,128,128,-1,-1,-1,-1,-9.744793346,6.196485877,-3.548307468,-11.32551616,112.5274725,112.1167883,112.5274725,116.8060837
1.71E+12,128,128,-1,-1,-1,-1,-9.745016034,6.187394834,-3.557621199,-11.33279408,112.5274725,112.1167883,112.5274725,116.8060837
1.71E+12,128,128,-1,-1,-1,-1,-9.745198006,6.178310862,-3.566887145,-11.34005556,112.5274725,112.1167883,112.5274725,116.8060837
1.71E+12,128,128,-1,-1,-1,-1,-9.745339421,6.169236911,-3.576102511,-11.34729835,112.5274725,112.1167883,112.5274725,116.8060837
1.71E+12,128,128,-1,-1,-1,-1,-9.745440483,6.160175888,-3.585264596,-11.3545202,112.5274725,112.1167883,112.5274725,116.8060837
1.71E+12,128,128,-1,-1,-1,-1,-9.74550143,6.151130633,-3.594370796,-11.36171891,112.5274725,112.1167883,112.5274725,116.8060837
1.71E+12,128,128,-1,-1,-1,-1,-9.745522544,6.142103909,-3.603418635,-11.36889225,112.5274725,112.1167883,112.5274725,116.8060837
1.71E+12,128,128,-1,-1,-1,-1,-9.74550415,6.133098444,-3.612405706,-11.376038,112.5274725,112.1167883,112.5274725,116.8060837
1.71E+12,128,128,-1,-1,-1,-1,-9.745446595,6.124116968,-3.621329627,-11.383154,112.5274725,112.1167883,112.5274725,116.8060837
1.71E+12,128,128,-1,-1,-1,-1,-9.745350257,6.115162197,-3.63018806,-11.39023807,112.5274725,112.1167883,112.5274725,116.8060837
1.71E+12,128,128,-1,-1,-1,-1,-9.745215533,6.106236792,-3.638978742,-11.39728814,112.5274725,112.1167883,112.5274725,116.8060837
1.71E+12,128,128,-1,-1,-1,-1,-9.745042861,6.09734332,-3.647699541,-11.40430219,112.5274725,112.1167883,112.5274725,116.8060837
1.71E+12,128,128,-1,-1,-1,-1,-9.744832729,6.088484244,-3.656348485,-11.41127818,112.5274725,112.1167883,112.5274725,116.8060837
1.71E+12,128,128,-1,-1,-1,-1,-9.744585687,6.079661926,-3.664923762,-11.41821409,112.5274725,112.1167883,112.5274725,116.8060837
1.71E+12,128,128,-1,-1,-1,-1,-9.744302342,6.070878622,-3.67342372,-11.42510802,112.5274725,112.1167883,112.5274725,116.8060837
1.71E+12,128,128,-1,-1,-1,-1,-9.743983344,6.062136502,-3.681846843,-11.43195809,112.5274725,112.1167883,112.5274725,116.8060837
1.71E+12,128,128,-1,-1,-1,-1,-9.743629364,6.053437638,-3.690191727,-11.43876251,112.5274725,112.1167883,112.5274725,116.8060837
1.71E+12,128,128,-1,-1,-1,-1,-9.743241091,6.04478399,-3.698457101,-11.44551949,112.5274725,112.1167883,112.5274725,116.8060837
1.71E+12,128,128,-1,-1,-1,-1,-9.742819248,6.036177419,-3.706641828,-11.45222728,112.5274725,112.1167883,112.5274725,116.8060837
1.71E+12,128,128,-1,-1,-1,-1,-9.742364603,6.027619667,-3.714744936,-11.45888421,112.5274725,112.1167883,112.5274725,116.8060837
1.71E+12,128,128,-1,-1,-1,-1,-9.741877981,6.019112326,-3.722765655,-11.46548863,112.5274725,112.1167883,112.5274725,116.8060837
1.71E+12,128,128,-1,-1,-1,-1,-9.741360251,6.010656834,-3.730703417,-11.47203902,112.5274725,112.1167883,112.5274725,116.8060837
1.71E+12,128,128,-1,-1,-1,-1,-9.740812334,6.002254481,-3.738557853,-11.47853391,112.5274725,112.1167883,112.5274725,116.8060837
1.71E+12,128,128,-1,-1,-1,-1,-9.740235202,5.993906411,-3.746328791,-11.48497191,112.5274725,112.1167883,112.5274725,116.8060837
1.71E+12,128,128,-1,-1,-1,-1,-9.739629856,5.985613652,-3.754016205,-11.49135172,112.5274725,112.1167883,112.5274725,116.8060837
1.71E+12,128,128,-1,-1,-1,-1,-9.738997319,5.977377144,-3.761620175,-11.49767207,112.5274725,112.1167883,112.5274725,116.8060837
1.71E+12,128,128,-1,-1,-1,-1,-9.738338644,5.969197731,-3.769140913,-11.50393175,112.5274725,112.1167883,112.5274725,116.8060837
1.71E+12,128,128,-1,-1,-1,-1,-9.737654925,5.961076129,-3.776578797,-11.51012962,112.5274725,112.1167883,112.5274725,116.8060837
1.71E+12,128,128,-1,-1,-1,-1,-9.736947302,5.953012915,-3.783934387,-11.51626464,112.5274725,112.1167883,112.5274725,116.8060837
1.71E+12,128,128,-1,-1,-1,-1,-9.73621696,5.94500852,-3.79120844,-11.52233583,112.5274725,112.1167883,112.5274725,116.8060837
1.71E+12,128,128,-1,-1,-1,-1,-9.735465139,5.937063194,-3.798401945,-11.52834226,112.5274725,112.1167883,112.5274725,116.8060837
1.71E+12,128,128,-1,-1,-1,-1,-9.734693124,5.929177005,-3.805516119,-11.53428312,112.5274725,112.1167883,112.5274725,116.8060837
1.71E+12,128,128,-1,-1,-1,-1,-9.733902255,5.92134989,-3.812552365,-11.54015766,112.5274725,112.1167883,112.5274725,116.8060837
1.71E+12,128,128,-1,-1,-1,-1,-9.733093924,5.913581693,-3.819512231,-11.54596516,112.5274725,112.1167883,112.5274725,116.8060837
1.71E+12,128,128,-1,-1,-1,-1,-9.732269538,5.905872147,-3.82639739,-11.55170501,112.5274725,112.1167883,112.5274725,116.8060837
1.71E+12,128,128,-1,-1,-1,-1,-9.731430527,5.898220871,-3.833209656,-11.55737666,112.5274725,112.1167883,112.5274725,116.8060837
1.71E+12,128,128,-1,-1,-1,-1,-9.730578356,5.89062736,-3.839950996,-11.56297966,112.5274725,112.1167883,112.5274725,116.8060837
1.71E+12,128,128,-1,-1,-1,-1,-9.729714517,5.883090983,-3.846623535,-11.56851364,112.5274725,112.1167883,112.5274725,116.8060837
1.71E+12,128,128,-1,-1,-1,-1,-9.728840543,5.875610989,-3.853229554,-11.5739783,112.5274725,112.1167883,112.5274725,116.8060837
1.71E+12,128,128,-1,-1,-1,-1,-9.727957998,5.868186497,-3.859771501,-11.57937343,112.5274725,112.1167883,112.5274725,116.8060837
1.71E+12,128,128,-1,-1,-1,-1,-9.727068463,5.860816503,-3.86625196,-11.5846989,112.5274725,112.1167883,112.5274725,116.8060837
1.71E+12,128,128,-1,-1,-1,-1,-9.726173534,5.853499919,-3.872673615,-11.58995462,112.5274725,112.1167883,112.5274725,116.8060837
1.71E+12,128,128,-1,-1,-1,-1,-9.72527481,5.846235585,-3.879039225,-11.59514057,112.5274725,112.1167883,112.5274725,116.8060837
1.71E+12,128,128,-1,-1,-1,-1,-9.724373877,5.839022283,-3.885351594,-11.60025683,112.5274725,112.1167883,112.5274725,116.8060837
1.71E+12,128,128,-1,-1,-1,-1,-9.723472321,5.831858736,-3.891613585,-11.60530351,112.5274725,112.1167883,112.5274725,116.8060837
1.71E+12,128,128,-1,-1,-1,-1,-9.722571737,5.82474358,-3.897828157,-11.61028081,112.5274725,112.1167883,112.5274725,116.8060837
1.71E+12,128,128,-1,-1,-1,-1,-9.721673733,5.817675359,-3.903998374,-11.615189,112.5274725,112.1167883,112.5274725,116.8060837
1.71E+12,128,128,-1,-1,-1,-1,-9.720779924,5.810652529,-3.910127395,-11.62002839,112.5274725,112.1167883,112.5274725,116.8060837
1.71E+12,128,128,-1,-1,-1,-1,-9.719891942,5.803673468,-3.916218473,-11.62479938,112.5274725,112.1167883,112.5274725,116.8060837
1.71E+12,128,128,-1,-1,-1,-1,-9.719011427,5.796736504,-3.922274923,-11.62950243,112.5274725,112.1167883,112.5274725,116.8060837
1.71E+12,128,128,-1,-1,-1,-1,-9.718140013,5.789839914,-3.928300099,-11.63413805,112.5274725,112.1167883,112.5274725,116.8060837
1.71E+12,128,128,-1,-1,-1,-1,-9.717279297,5.782981944,-3.934297353,-11.63870682,112.5274725,112.1167883,112.5274725,116.8060837
1.71E+12,128,128,-1,-1,-1,-1,-9.716430834,5.776160823,-3.940270011,-11.64320932,112.5274725,112.1167883,112.5274725,116.8060837
1.71E+12,128,128,-1,-1,-1,-1,-9.715596158,5.769374756,-3.946221402,-11.6476462,112.5274725,112.1167883,112.5274725,116.8060837
1.71E+12,128,128,-1,-1,-1,-1,-9.714776797,5.762621949,-3.952154848,-11.65201819,112.5274725,112.1167883,112.5274725,116.8060837
1.71E+12,128,128,-1,-1,-1,-1,-9.713974254,5.755900579,-3.958073675,-11.6563261,112.5274725,112.1167883,112.5274725,116.8060837
1.71E+12,128,128,-1,-1,-1,-1,-9.713189993,5.749208811,-3.963981183,-11.66057075,112.5274725,112.1167883,112.5274725,116.8060837
1.71E+12,128,128,-1,-1,-1,-1,-9.712425461,5.742544827,-3.969880634,-11.66475298,112.5274725,112.1167883,112.5274725,116.8060837
1.71E+12,128,128,-1,-1,-1,-1,-9.711682079,5.735906827,-3.975775251,-11.66887368,112.5274725,112.1167883,112.5274725,116.8060837
1.71E+12,128,128,-1,-1,-1,-1,-9.71096122,5.729293023,-3.981668197,-11.67293376,112.5274725,112.1167883,112.5274725,116.8060837
1.71E+12,128,128,-1,-1,-1,-1,-9.710264215,5.722701661,-3.987562554,-11.67693421,112.5274725,112.1167883,112.5274725,116.8060837
1.71E+12,128,128,-1,-1,-1,-1,-9.709592338,5.716131008,-3.993461329,-11.68087602,112.5274725,112.1167883,112.5274725,116.8060837
1.71E+12,128,128,-1,-1,-1,-1,-9.708946816,5.709579354,-3.999367461,-11.68476018,112.5274725,112.1167883,112.5274725,116.8060837
1.71E+12,128,128,-1,-1,-1,-1,-9.708328831,5.703045003,-4.005283828,-11.68858774,112.5274725,112.1167883,112.5274725,116.8060837
1.71E+12,128,128,-1,-1,-1,-1,-9.707739495,5.696526274,-4.011213221,-11.69235975,112.5274725,112.1167883,112.5274725,116.8060837
1.71E+12,128,128,-1,-1,-1,-1,-9.70717987,5.690021509,-4.017158361,-11.69607733,112.5274725,112.1167883,112.5274725,116.8060837
1.71E+12,128,128,-1,-1,-1,-1,-9.706651002,5.683529118,-4.023121884,-11.69974141,112.5274725,112.1167883,112.5274725,116.8060837
1.71E+12,128,128,-1,-1,-1,-1,-9.706153897,5.677047624,-4.029106273,-11.70335281,112.5274725,112.1167883,112.5274725,116.8060837
1.71E+12,128,128,-1,-1,-1,-1,-9.705689486,5.670575639,-4.035113847,-11.70691237,112.5274725,112.1167883,112.5274725,116.8060837
1.71E+12,128,128,-1,-1,-1,-1,-9.705258655,5.66411185,-4.041146805,-11.71042099,112.5274725,112.1167883,112.5274725,116.8060837
1.71E+12,128,128,-1,-1,-1,-1,-9.704862247,5.657655012,-4.047207235,-11.71387958,112.5274725,112.1167883,112.5274725,116.8060837
1.71E+12,128,128,-1,-1,-1,-1,-9.704501061,5.651203891,-4.053297169,-11.71728906,112.5274725,112.1167883,112.5274725,116.8060837
1.71E+12,128,128,-1,-1,-1,-1,-9.704175852,5.64475727,-4.059418583,-11.72065029,112.5274725,112.1167883,112.5274725,116.8060837
1.71E+12,128,128,-1,-1,-1,-1,-9.703887308,5.638313943,-4.065573365,-11.72396415,112.5274725,112.1167883,112.5274725,116.8060837
1.71E+12,128,128,-1,-1,-1,-1,-9.70363603,5.631872738,-4.071763292,-11.72723149,112.5274725,112.1167883,112.5274725,116.8060837
1.71E+12,128,128,-1,-1,-1,-1,-9.703422524,5.625432568,-4.077989956,-11.73045317,112.5274725,112.1167883,112.5274725,116.8060837
1.71E+12,128,128,-1,-1,-1,-1,-9.703247188,5.618992459,-4.084254728,-11.73363003,112.5274725,112.1167883,112.5274725,116.8060837
1.71E+12,128,128,-1,-1,-1,-1,-9.703110321,5.612551543,-4.090558778,-11.73676285,112.5274725,112.1167883,112.5274725,116.8060837
1.71E+12,128,128,-1,-1,-1,-1,-9.703012155,5.606109021,-4.096903134,-11.73985241,112.5274725,112.1167883,112.5274725,116.8060837
1.71E+12,128,128,-1,-1,-1,-1,-9.70295287,5.599664145,-4.103288725,-11.74289945,112.5274725,112.1167883,112.5274725,116.8060837
1.71E+12,128,128,-1,-1,-1,-1,-9.702932591,5.593216221,-4.10971637,-11.7459047,112.5274725,112.1167883,112.5274725,116.8060837
1.71E+12,128,128,-1,-1,-1,-1,-9.702951374,5.586764626,-4.116186748,-11.74886895,112.5274725,112.1167883,112.5274725,116.8060837
1.71E+12,128,128,-1,-1,-1,-1,-9.703009215,5.580308813,-4.122700402,-11.75179295,112.5274725,112.1167883,112.5274725,116.8060837
1.71E+12,128,128,-1,-1,-1,-1,-9.703106034,5.573848339,-4.129257695,-11.75467738,112.5274725,112.1167883,112.5274725,116.8060837
1.71E+12,128,128,-1,-1,-1,-1,-9.703241648,5.567382872,-4.135858776,-11.75752294,112.5274725,112.1167883,112.5274725,116.8060837
1.71E+12,128,128,-1,-1,-1,-1,-9.703415784,5.560912152,-4.142503632,-11.76033025,112.5274725,112.1167883,112.5274725,116.8060837
1.71E+12,128,128,-1,-1,-1,-1,-9.70362809,5.554435994,-4.149192096,-11.7630999,112.5274725,112.1167883,112.5274725,116.8060837
1.71E+12,128,128,-1,-1,-1,-1,-9.703878134,5.54795428,-4.155923854,-11.76583243,112.5274725,112.1167883,112.5274725,116.8060837
1.71E+12,128,128,-1,-1,-1,-1,-9.704165438,5.541466943,-4.162698496,-11.76852838,112.5274725,112.1167883,112.5274725,116.8060837
1.71E+12,128,128,-1,-1,-1,-1,-9.704489476,5.534973962,-4.169515514,-11.77118829,112.5274725,112.1167883,112.5274725,116.8060837
1.71E+12,128,128,-1,-1,-1,-1,-9.704849669,5.528475371,-4.176374298,-11.77381263,112.5274725,112.1167883,112.5274725,116.8060837
1.71E+12,128,128,-1,-1,-1,-1,-9.705245376,5.521971239,-4.183274137,-11.77640185,112.5274725,112.1167883,112.5274725,116.8060837
1.71E+12,128,128,-1,-1,-1,-1,-9.705675885,5.515461682,-4.190214203,-11.77895637,112.5274725,112.1167883,112.5274725,116.8060837
1.71E+12,128,128,-1,-1,-1,-1,-9.706140393,5.508946889,-4.197193504,-11.78147659,112.5274725,112.1167883,112.5274725,116.8060837
1.71E+12,128,128,-1,-1,-1,-1,-9.706638014,5.502427126,-4.204210887,-11.78396286,112.5274725,112.1167883,112.5274725,116.8060837
1.71E+12,128,128,-1,-1,-1,-1,-9.707167802,5.495902693,-4.211265109,-11.78641551,112.5274725,112.1167883,112.5274725,116.8060837
1.71E+12,128,128,-1,-1,-1,-1,-9.707728777,5.489373914,-4.218354862,-11.78883486,112.5274725,112.1167883,112.5274725,116.8060837
1.71E+12,128,128,-1,-1,-1,-1,-9.708319942,5.482841117,-4.225478825,-11.79122122,112.5274725,112.1167883,112.5274725,116.8060837
1.71E+12,128,128,-1,-1,-1,-1,-9.708940286,5.476304633,-4.232635653,-11.79357485,112.5274725,112.1167883,112.5274725,116.8060837
1.71E+12,128,128,-1,-1,-1,-1,-9.709588754,5.4697648,-4.239823954,-11.79589605,112.5274725,112.1167883,112.5274725,116.8060837
1.71E+12,128,128,-1,-1,-1,-1,-9.710264251,5.46322196,-4.247042291,-11.7981851,112.5274725,112.1167883,112.5274725,116.8060837
1.71E+12,128,128,-1,-1,-1,-1,-9.710965633,5.456676487,-4.254289145,-11.80044222,112.5274725,112.1167883,112.5274725,116.8060837
1.71E+12,128,128,-1,-1,-1,-1,-9.711691701,5.450128801,-4.2615629,-11.80266766,112.5274725,112.1167883,112.5274725,116.8060837
1.71E+12,128,128,-1,-1,-1,-1,-9.712441231,5.443579357,-4.268861874,-11.80486162,112.5274725,112.1167883,112.5274725,116.8060837
1.71E+12,128,128,-1,-1,-1,-1,-9.713212983,5.437028613,-4.276184371,-11.80702432,112.5274725,112.1167883,112.5274725,116.8060837
1.71E+12,128,128,-1,-1,-1,-1,-9.714005716,5.430476991,-4.283528725,-11.80915592,112.5274725,112.1167883,112.5274725,116.8060837
1.71E+12,128,128,-1,-1,-1,-1,-9.714818187,5.423924866,-4.290893322,-11.81125661,112.5274725,112.1167883,112.5274725,116.8060837
1.71E+12,128,128,-1,-1,-1,-1,-9.715649169,5.417372559,-4.29827661,-11.81332657,112.5274725,112.1167883,112.5274725,116.8060837
1.71E+12,128,128,-1,-1,-1,-1,-9.716497429,5.410820347,-4.305677082,-11.81536595,112.5274725,112.1167883,112.5274725,116.8060837
1.71E+12,128,128,-1,-1,-1,-1,-9.717361733,5.404268483,-4.31309325,-11.81737491,112.5274725,112.1167883,112.5274725,116.8060837
1.71E+12,128,128,-1,-1,-1,-1,-9.718240847,5.397717206,-4.320523641,-11.81935357,112.5274725,112.1167883,112.5274725,116.8060837
1.71E+12,128,128,-1,-1,-1,-1,-9.719133542,5.391166748,-4.327966793,-11.82130211,112.5274725,112.1167883,112.5274725,116.8060837
1.71E+12,128,128,-1,-1,-1,-1,-9.720038593,5.384617301,-4.335421292,-11.82322069,112.5274725,112.1167883,112.5274725,116.8060837
1.71E+12,128,128,-1,-1,-1,-1,-9.720954793,5.378068997,-4.342885795,-11.82510953,112.5274725,112.1167883,112.5274725,116.8060837
1.71E+12,128,128,-1,-1,-1,-1,-9.721880961,5.3715219,-4.350359061,-11.82696883,112.5274725,112.1167883,112.5274725,116.8060837
1.71E+12,128,128,-1,-1,-1,-1,-9.722815957,5.364975994,-4.357839963,-11.82879879,112.5274725,112.1167883,112.5274725,116.8060837
1.71E+12,128,128,-1,-1,-1,-1,-9.723758691,5.358431427,-4.365327264,-11.83059945,112.5274725,112.1167883,112.5274725,116.8060837
1.71E+12,128,128,-1,-1,-1,-1,-9.724708123,5.351888524,-4.372819599,-11.8323706,112.5274725,112.1167883,112.5274725,116.8060837
1.71E+12,128,128,-1,-1,-1,-1,-9.725663238,5.345347565,-4.380315673,-11.83411205,112.5274725,112.1167883,112.5274725,116.8060837
1.71E+12,128,128,-1,-1,-1,-1,-9.726623043,5.338808789,-4.387814254,-11.83582361,112.5274725,112.1167883,112.5274725,116.8060837
1.71E+12,128,128,-1,-1,-1,-1,-9.727586562,5.332272397,-4.395314165,-11.83750512,112.5274725,112.1167883,112.5274725,116.8060837
1.71E+12,128,128,-1,-1,-1,-1,-9.728552834,5.32573854,-4.402814294,-11.83915642,112.5274725,112.1167883,112.5274725,116.8060837
1.71E+12,128,128,-1,-1,-1,-1,-9.729520924,5.319207265,-4.410313659,-11.84077737,112.5274725,112.1167883,112.5274725,116.8060837
1.71E+12,128,128,-1,-1,-1,-1,-9.730489922,5.312678555,-4.417811367,-11.84236782,112.5274725,112.1167883,112.5274725,116.8060837
1.71E+12,128,128,-1,-1,-1,-1,-9.731458954,5.306152414,-4.42530654,-11.8439277,112.5274725,112.1167883,112.5274725,116.8060837
1.71E+12,128,128,-1,-1,-1,-1,-9.732427218,5.299628901,-4.432798318,-11.84545688,112.5274725,112.1167883,112.5274725,116.8060837
1.71E+12,128,128,-1,-1,-1,-1,-9.733393931,5.293108054,-4.440285877,-11.84695526,112.5274725,112.1167883,112.5274725,116.8060837
1.71E+12,128,128,-1,-1,-1,-1,-9.734358356,5.286589439,-4.447768917,-11.8484227,112.5274725,112.1167883,112.5274725,116.8060837
1.71E+12,128,128,-1,-1,-1,-1,-9.735319845,5.280072186,-4.455247659,-11.84985902,112.5274725,112.1167883,112.5274725,116.8060837
1.71E+12,128,128,-1,-1,-1,-1,-9.736277786,5.273555421,-4.462722364,-11.85126407,112.5274725,112.1167883,112.5274725,116.8060837
1.71E+12,128,128,-1,-1,-1,-1,-9.737231606,5.267038244,-4.470193361,-11.85263776,112.5274725,112.1167883,112.5274725,116.8060837
1.71E+12,128,128,-1,-1,-1,-1,-9.738180803,5.260519682,-4.477661121,-11.85397994,112.5274725,112.1167883,112.5274725,116.8060837
1.71E+12,128,128,-1,-1,-1,-1,-9.739124928,5.253998665,-4.485126263,-11.85529049,112.5274725,112.1167883,112.5274725,116.8060837
1.71E+12,128,128,-1,-1,-1,-1,-9.740063563,5.247474034,-4.492589529,-11.85656932,112.5274725,112.1167883,112.5274725,116.8060837
1.71E+12,128,128,-1,-1,-1,-1,-9.740996319,5.240944605,-4.500051714,-11.85781634,112.5274725,112.1167883,112.5274725,116.8060837
1.71E+12,128,128,-1,-1,-1,-1,-9.741922842,5.23440918,-4.507513662,-11.85903145,112.5274725,112.1167883,112.5274725,116.8060837
1.71E+12,128,128,-1,-1,-1,-1,-9.742842811,5.227866535,-4.514976276,-11.8602145,112.5274725,112.1167883,112.5274725,116.8060837
1.71E+12,128,128,-1,-1,-1,-1,-9.743755931,5.221315409,-4.522440522,-11.86136543,112.5274725,112.1167883,112.5274725,116.8060837
1.71E+12,128,128,-1,-1,-1,-1,-9.744661942,5.2147545,-4.529907442,-11.86248413,112.5274725,112.1167883,112.5274725,116.8060837
1.71E+12,128,128,-1,-1,-1,-1,-9.745560635,5.208182468,-4.537378167,-11.86357054,112.5274725,112.1167883,112.5274725,116.8060837
1.71E+12,128,128,-1,-1,-1,-1,-9.746451857,5.201597937,-4.54485392,-11.86462462,112.5274725,112.1167883,112.5274725,116.8060837
1.71E+12,128,128,-1,-1,-1,-1,-9.747335499,5.194999483,-4.552336016,-11.86564628,112.5274725,112.1167883,112.5274725,116.8060837
1.71E+12,128,128,-1,-1,-1,-1,-9.748211494,5.188385651,-4.559825844,-11.86663544,112.5274725,112.1167883,112.5274725,116.8060837
1.71E+12,128,128,-1,-1,-1,-1,-9.749079799,5.181754975,-4.567324824,-11.86759202,112.5274725,112.1167883,112.5274725,116.8060837
1.71E+12,128,128,-1,-1,-1,-1,-9.749940405,5.175105989,-4.574834416,-11.86851591,112.5274725,112.1167883,112.5274725,116.8060837
1.71E+12,128,128,-1,-1,-1,-1,-9.750793326,5.168437199,-4.582356126,-11.86940701,112.5274725,112.1167883,112.5274725,116.8060837
1.71E+12,128,128,-1,-1,-1,-1,-9.751638586,5.161747097,-4.589891489,-11.8702652,112.5274725,112.1167883,112.5274725,116.8060837
1.71E+12,128,128,-1,-1,-1,-1,-9.752476239,5.155034155,-4.597442085,-11.87109032,112.5274725,112.1167883,112.5274725,116.8060837
1.71E+12,128,128,-1,-1,-1,-1,-9.753306368,5.1482968,-4.605009568,-11.8718822,112.5274725,112.1167883,112.5274725,116.8060837
1.71E+12,128,128,-1,-1,-1,-1,-9.754129068,5.141533432,-4.612595636,-11.87264063,112.5274725,112.1167883,112.5274725,116.8060837
1.71E+12,128,128,-1,-1,-1,-1,-9.754944447,5.134742447,-4.620202,-11.87336543,112.5274725,112.1167883,112.5274725,116.8060837
1.71E+12,128,128,-1,-1,-1,-1,-9.75575262,5.127922234,-4.627830386,-11.87405641,112.5274725,112.1167883,112.5274725,116.8060837
1.71E+12,128,128,-1,-1,-1,-1,-9.756553601,5.121070882,-4.635482718,-11.87471329,112.5274725,112.1167883,112.5274725,116.8060837
1.71E+12,128,128,-1,-1,-1,-1,-9.757347296,5.114186203,-4.643161093,-11.87533576,112.5274725,112.1167883,112.5274725,116.8060837
1.71E+12,128,128,-1,-1,-1,-1,-9.758133591,5.107266018,-4.650867573,-11.87592347,112.5274725,112.1167883,112.5274725,116.8060837
1.71E+12,128,128,-1,-1,-1,-1,-9.758912352,5.100308154,-4.658604199,-11.87647606,112.5274725,112.1167883,112.5274725,116.8060837
1.71E+12,128,128,-1,-1,-1,-1,-9.759683435,5.093310439,-4.666372996,-11.87699319,112.5274725,112.1167883,112.5274725,116.8060837
1.71E+12,128,128,-1,-1,-1,-1,-9.760446676,5.086270691,-4.674175986,-11.8774745,112.5274725,112.1167883,112.5274725,116.8060837
1.71E+12,128,128,-1,-1,-1,-1,-9.761201909,5.079186688,-4.682015221,-11.87791958,112.5274725,112.1167883,112.5274725,116.8060837
1.71E+12,128,128,-1,-1,-1,-1,-9.761948969,5.072056175,-4.689892794,-11.87832799,112.5274725,112.1167883,112.5274725,116.8060837
1.71E+12,128,128,-1,-1,-1,-1,-9.762687684,5.064876902,-4.697810782,-11.87869928,112.5274725,112.1167883,112.5274725,116.8060837
1.71E+12,128,128,-1,-1,-1,-1,-9.763417838,5.057646637,-4.705771201,-11.87903299,112.5274725,112.1167883,112.5274725,116.8060837
1.71E+12,128,128,-1,-1,-1,-1,-9.764139165,5.050363164,-4.713776001,-11.8793286,112.5274725,112.1167883,112.5274725,116.8060837
1.71E+12,128,128,-1,-1,-1,-1,-9.764851354,5.043024261,-4.721827093,-11.87958557,112.5274725,112.1167883,112.5274725,116.8060837
1.71E+12,128,128,-1,-1,-1,-1,-9.765554061,5.035627733,-4.729926329,-11.87980337,112.5274725,112.1167883,112.5274725,116.8060837
1.71E+12,128,128,-1,-1,-1,-1,-9.766246911,5.028171427,-4.738075484,-11.87998141,112.5274725,112.1167883,112.5274725,116.8060837
1.71E+12,128,128,-1,-1,-1,-1,-9.766929485,5.020653205,-4.74627628,-11.88011913,112.5274725,112.1167883,112.5274725,116.8060837
1.71E+12,128,128,-1,-1,-1,-1,-9.76760133,5.013070946,-4.754530384,-11.880216,112.5274725,112.1167883,112.5274725,116.8060837
1.71E+12,128,128,-1,-1,-1,-1,-9.768261958,5.00542255,-4.762839408,-11.88027142,112.5274725,112.1167883,112.5274725,116.8060837
1.71E+12,128,128,-1,-1,-1,-1,-9.768910836,4.997705951,-4.771204885,-11.88028481,112.5274725,112.1167883,112.5274725,116.8060837
1.71E+12,128,128,-1,-1,-1,-1,-9.769547369,4.989919111,-4.779628258,-11.88025558,112.5274725,112.1167883,112.5274725,116.8060837
1.71E+12,128,128,-1,-1,-1,-1,-9.770170906,4.982060049,-4.788110857,-11.88018313,112.5274725,112.1167883,112.5274725,116.8060837
1.71E+12,128,128,-1,-1,-1,-1,-9.770780754,4.974126825,-4.796653929,-11.88006681,112.5274725,112.1167883,112.5274725,116.8060837
1.71E+12,128,128,-1,-1,-1,-1,-9.77137617,4.966117504,-4.805258666,-11.87990601,112.5274725,112.1167883,112.5274725,116.8060837
1.71E+12,128,128,-1,-1,-1,-1,-9.771956373,4.958030169,-4.813926204,-11.8797001,112.5274725,112.1167883,112.5274725,116.8060837
1.71E+12,128,128,-1,-1,-1,-1,-9.772520558,4.949862936,-4.822657622,-11.87944846,112.5274725,112.1167883,112.5274725,116.8060837
1.71E+12,128,128,-1,-1,-1,-1,-9.773067894,4.941613937,-4.831453957,-11.87915046,112.5274725,112.1167883,112.5274725,116.8060837
1.71E+12,128,128,-1,-1,-1,-1,-9.773597518,4.933281325,-4.840316194,-11.87880547,112.5274725,112.1167883,112.5274725,116.8060837
1.71E+12,128,128,-1,-1,-1,-1,-9.774108536,4.924863293,-4.849245243,-11.87841281,112.5274725,112.1167883,112.5274725,116.8060837
1.71E+12,128,128,-1,-1,-1,-1,-9.774599985,4.916358104,-4.858241881,-11.87797181,112.5274725,112.1167883,112.5274725,116.8060837
1.71E+12,128,128,-1,-1,-1,-1,-9.775070842,4.907764101,-4.867306741,-11.87748184,112.5274725,112.1167883,112.5274725,116.8060837
1.71E+12,128,128,-1,-1,-1,-1,-9.77552018,4.899079302,-4.876440878,-11.87694205,112.5274725,112.1167883,112.5274725,116.8060837
1.71E+12,128,128,-1,-1,-1,-1,-9.775947175,4.890301368,-4.885645807,-11.87635148,112.5274725,112.1167883,112.5274725,116.8060837
1.71E+12,128,128,-1,-1,-1,-1,-9.776350988,4.881427997,-4.894922991,-11.87570918,112.5274725,112.1167883,112.5274725,116.8060837
1.71E+12,128,128,-1,-1,-1,-1,-9.776730775,4.872456934,-4.904273842,-11.87501418,112.5274725,112.1167883,112.5274725,116.8060837
1.71E+12,128,128,-1,-1,-1,-1,-9.777085687,4.863385955,-4.913699732,-11.87426553,112.5274725,112.1167883,112.5274725,116.8060837
1.71E+12,128,128,-1,-1,-1,-1,-9.777414864,4.854212879,-4.923201985,-11.87346228,112.5274725,112.1167883,112.5274725,116.8060837
1.71E+12,128,128,-1,-1,-1,-1,-9.777717431,4.844935595,-4.932781836,-11.87260347,112.5274725,112.1167883,112.5274725,116.8060837
1.71E+12,128,128,-1,-1,-1,-1,-9.77799248,4.835552073,-4.942440407,-11.87168819,112.5274725,112.1167883,112.5274725,116.8060837
1.71E+12,128,128,-1,-1,-1,-1,-9.778239094,4.826060349,-4.952178745,-11.8707155,112.5274725,112.1167883,112.5274725,116.8060837
1.71E+12,128,128,-1,-1,-1,-1,-9.778456352,4.816458501,-4.961997851,-11.86968451,112.5274725,112.1167883,112.5274725,116.8060837
1.71E+12,128,128,-1,-1,-1,-1,-9.778643356,4.806744632,-4.971898724,-11.86859434,112.5274725,112.1167883,112.5274725,116.8060837
1.71E+12,128,128,-1,-1,-1,-1,-9.778799255,4.796916868,-4.981882387,-11.86744411,112.5274725,112.1167883,112.5274725,116.8060837
1.71E+12,128,128,-1,-1,-1,-1,-9.778923237,4.786973335,-4.991949903,-11.866233,112.5274725,112.1167883,112.5274725,116.8060837
1.71E+12,128,128,-1,-1,-1,-1,-9.779014525,4.776912199,-5.002102325,-11.86496022,112.5274725,112.1167883,112.5274725,116.8060837
1.71E+12,128,128,-1,-1,-1,-1,-9.779072367,4.766731696,-5.012340671,-11.86362505,112.5274725,112.1167883,112.5274725,116.8060837
1.71E+12,128,128,-1,-1,-1,-1,-9.779096042,4.756430133,-5.022665909,-11.86222673,112.5274725,112.1167883,112.5274725,116.8060837
1.71E+12,128,128,-1,-1,-1,-1,-9.77908485,4.746005907,-5.033078943,-11.86076455,112.5274725,112.1167883,112.5274725,116.8060837
1.71E+12,128,128,-1,-1,-1,-1,-9.779038129,4.735457491,-5.043580638,-11.85923783,112.5274725,112.1167883,112.5274725,116.8060837
1.71E+12,128,128,-1,-1,-1,-1,-9.77895529,4.724783415,-5.054171875,-11.85764588,112.5274725,112.1167883,112.5274725,116.8060837
1.71E+12,128,128,-1,-1,-1,-1,-9.778835807,4.713982251,-5.064853556,-11.85598807,112.5274725,112.1167883,112.5274725,116.8060837
1.71E+12,128,128,-1,-1,-1,-1,-9.778679238,4.7030526,-5.075626637,-11.85426379,112.5274725,112.1167883,112.5274725,116.8060837
1.71E+12,128,128,-1,-1,-1,-1,-9.778485063,4.691993256,-5.086491806,-11.8524724,112.5274725,112.1167883,112.5274725,116.8060837
1.71E+12,128,128,-1,-1,-1,-1,-9.778252675,4.680803258,-5.097449417,-11.85061328,112.5274725,112.1167883,112.5274725,116.8060837
1.71E+12,128,128,-1,-1,-1,-1,-9.777981541,4.669481732,-5.108499809,-11.84868579,112.5274725,112.1167883,112.5274725,116.8060837
1.71E+12,128,128,-1,-1,-1,-1,-9.77767119,4.658027862,-5.119643328,-11.84668929,112.5274725,112.1167883,112.5274725,116.8060837
1.71E+12,128,128,-1,-1,-1,-1,-9.777321217,4.646440911,-5.130880307,-11.84462321,112.5274725,112.1167883,112.5274725,116.8060837
1.71E+12,128,128,-1,-1,-1,-1,-9.776931309,4.634720176,-5.142211132,-11.84248705,112.5274725,112.1167883,112.5274725,116.8060837
1.71E+12,128,128,-1,-1,-1,-1,-9.77650125,4.622864986,-5.153636264,-11.84028036,112.5274725,112.1167883,112.5274725,116.8060837
1.71E+12,128,128,-1,-1,-1,-1,-9.776030928,4.610874714,-5.165156214,-11.83800272,112.5274725,112.1167883,112.5274725,116.8060837
1.71E+12,128,128,-1,-1,-1,-1,-9.775520325,4.598748804,-5.176771521,-11.83565368,112.5274725,112.1167883,112.5274725,116.8060837
1.71E+12,128,128,-1,-1,-1,-1,-9.77496952,4.586486812,-5.188482708,-11.83323282,112.5274725,112.1167883,112.5274725,116.8060837
1.71E+12,128,128,-1,-1,-1,-1,-9.77437867,4.574088414,-5.200290256,-11.83073986,112.5274725,112.1167883,112.5274725,116.8060837
1.71E+12,128,128,-1,-1,-1,-1,-9.773748017,4.561553445,-5.212194572,-11.82817452,112.5274725,112.1167883,112.5274725,116.8060837
1.71E+12,128,128,-1,-1,-1,-1,-9.773077894,4.548881889,-5.224196005,-11.82553652,112.5274725,112.1167883,112.5274725,116.8060837
1.71E+12,128,128,-1,-1,-1,-1,-9.772368723,4.536073836,-5.236294887,-11.82282564,112.5274725,112.1167883,112.5274725,116.8060837
1.71E+12,128,128,-1,-1,-1,-1,-9.771621038,4.523129509,-5.24849153,-11.82004169,112.5274725,112.1167883,112.5274725,116.8060837
1.71E+12,128,128,-1,-1,-1,-1,-9.770835478,4.510049258,-5.260786219,-11.81718452,112.5274725,112.1167883,112.5274725,116.8060837
1.71E+12,128,128,-1,-1,-1,-1,-9.770012751,4.496833555,-5.273179195,-11.81425407,112.5274725,112.1167883,112.5274725,116.8060837
1.71E+12,128,128,-1,-1,-1,-1,-9.769153648,4.48348304,-5.285670608,-11.81125033,112.5274725,112.1167883,112.5274725,116.8060837
1.71E+12,128,128,-1,-1,-1,-1,-9.768259024,4.469998439,-5.298260584,-11.8081733,112.5274725,112.1167883,112.5274725,116.8060837
1.71E+12,128,128,-1,-1,-1,-1,-9.767329809,4.456380527,-5.310949282,-11.80502298,112.5274725,112.1167883,112.5274725,116.8060837
1.71E+12,128,128,-1,-1,-1,-1,-9.766367038,4.442630195,-5.323736842,-11.80179949,112.5274725,112.1167883,112.5274725,116.8060837
1.71E+12,128,128,-1,-1,-1,-1,-9.765371848,4.428748453,-5.336623395,-11.79850298,112.5274725,112.1167883,112.5274725,116.8060837
1.71E+12,128,128,-1,-1,-1,-1,-9.764345487,4.414736406,-5.34960908,-11.79513365,112.5274725,112.1167883,112.5274725,116.8060837
1.71E+12,128,128,-1,-1,-1,-1,-9.763289294,4.400595241,-5.362694053,-11.79169176,112.5274725,112.1167883,112.5274725,116.8060837
1.71E+12,128,128,-1,-1,-1,-1,-9.76220468,4.386326248,-5.375878432,-11.78817763,112.5274725,112.1167883,112.5274725,116.8060837
1.71E+12,128,128,-1,-1,-1,-1,-9.761093121,4.371930842,-5.389162279,-11.78459159,112.5274725,112.1167883,112.5274725,116.8060837
1.71E+12,128,128,-1,-1,-1,-1,-9.759956166,4.357410558,-5.402545609,-11.78093402,112.5274725,112.1167883,112.5274725,116.8060837
1.71E+12,128,128,-1,-1,-1,-1,-9.758795434,4.342767063,-5.416028371,-11.77720539,112.5274725,112.1167883,112.5274725,116.8060837
1.71E+12,128,128,-1,-1,-1,-1,-9.75761261,4.328002193,-5.429610417,-11.77340624,112.5274725,112.1167883,112.5274725,116.8060837
1.71E+12,128,128,-1,-1,-1,-1,-9.756409456,4.313117964,-5.443291491,-11.76953711,112.5274725,112.1167883,112.5274725,116.8060837
1.71E+12,128,128,-1,-1,-1,-1,-9.755187781,4.298116542,-5.457071239,-11.76559866,112.5274725,112.1167883,112.5274725,116.8060837
1.71E+12,128,128,-1,-1,-1,-1,-9.753949448,4.283000202,-5.470949246,-11.76159161,112.5274725,112.1167883,112.5274725,116.8060837
1.71E+12,128,128,-1,-1,-1,-1,-9.752696381,4.267771351,-5.48492503,-11.75751674,112.5274725,112.1167883,112.5274725,116.8060837
1.71E+12,128,128,-1,-1,-1,-1,-9.751430527,4.252432541,-5.498997986,-11.7533748,112.5274725,112.1167883,112.5274725,116.8060837
1.71E+12,128,128,-1,-1,-1,-1,-9.750153858,4.236986457,-5.513167401,-11.74916662,112.5274725,112.1167883,112.5274725,116.8060837
1.71E+12,128,128,-1,-1,-1,-1,-9.748868371,4.22143592,-5.527432451,-11.74489305,112.5274725,112.1167883,112.5274725,116.8060837
1.71E+12,128,128,-1,-1,-1,-1,-9.747576076,4.205783889,-5.541792187,-11.74055505,112.5274725,112.1167883,112.5274725,116.8060837
1.71E+12,128,128,-1,-1,-1,-1,-9.746278998,4.190033473,-5.556245524,-11.73615355,112.5274725,112.1167883,112.5274725,116.8060837
1.71E+12,128,128,-1,-1,-1,-1,-9.744979191,4.174187911,-5.570791281,-11.73168958,112.5274725,112.1167883,112.5274725,116.8060837
1.71E+12,128,128,-1,-1,-1,-1,-9.743678721,4.158250518,-5.585428203,-11.72716419,112.5274725,112.1167883,112.5274725,116.8060837
1.71E+12,128,128,-1,-1,-1,-1,-9.742379663,4.142224732,-5.60015493,-11.72257851,112.5274725,112.1167883,112.5274725,116.8060837
1.71E+12,128,128,-1,-1,-1,-1,-9.741084102,4.126114119,-5.614969983,-11.71793369,112.5274725,112.1167883,112.5274725,116.8060837
1.71E+12,128,128,-1,-1,-1,-1,-9.739794107,4.109922354,-5.629871752,-11.71323093,112.5274725,112.1167883,112.5274725,116.8060837
1.71E+12,128,128,-1,-1,-1,-1,-9.738511713,4.093653234,-5.64485848,-11.70847146,112.5274725,112.1167883,112.5274725,116.8060837
1.71E+12,128,128,-1,-1,-1,-1,-9.737238934,4.077310668,-5.659928267,-11.70365661,112.5274725,112.1167883,112.5274725,116.8060837
1.71E+12,128,128,-1,-1,-1,-1,-9.735977758,4.060898673,-5.675079085,-11.69878773,112.5274725,112.1167883,112.5274725,116.8060837
1.71E+12,128,128,-1,-1,-1,-1,-9.734730141,4.044421371,-5.69030877,-11.69386616,112.5274725,112.1167883,112.5274725,116.8060837
1.71E+12,128,128,-1,-1,-1,-1,-9.733498005,4.027882967,-5.705615038,-11.6888933,112.5274725,112.1167883,112.5274725,116.8060837
1.71E+12,128,128,-1,-1,-1,-1,-9.732283225,4.011287761,-5.720995464,-11.68387057,112.5274725,112.1167883,112.5274725,116.8060837
1.71E+12,128,128,-1,-1,-1,-1,-9.731087639,3.994640148,-5.73644749,-11.67879942,112.5274725,112.1167883,112.5274725,116.8060837
1.71E+12,128,128,-1,-1,-1,-1,-9.72991303,3.977944626,-5.751968403,-11.67368136,112.5274725,112.1167883,112.5274725,116.8060837
1.71E+12,128,128,-1,-1,-1,-1,-9.728761114,3.961205784,-5.76755533,-11.66851797,112.5274725,112.1167883,112.5274725,116.8060837
1.71E+12,128,128,-1,-1,-1,-1,-9.72763354,3.944428246,-5.783205294,-11.66331086,112.5274725,112.1167883,112.5274725,116.8060837
1.71E+12,128,128,-1,-1,-1,-1,-9.726531907,3.927616669,-5.798915238,-11.65806166,112.5274725,112.1167883,112.5274725,116.8060837
1.71E+12,128,128,-1,-1,-1,-1,-9.725457773,3.910775696,-5.814682076,-11.65277202,112.5274725,112.1167883,112.5274725,116.8060837
1.71E+12,128,128,-1,-1,-1,-1,-9.724412647,3.893909944,-5.830502703,-11.64744357,112.5274725,112.1167883,112.5274725,116.8060837
1.71E+12,128,128,-1,-1,-1,-1,-9.723397967,3.877024019,-5.846373948,-11.64207803,112.5274725,112.1167883,112.5274725,116.8060837
1.71E+12,128,128,-1,-1,-1,-1,-9.722415097,3.860122525,-5.862292573,-11.63667712,112.5274725,112.1167883,112.5274725,116.8060837
1.71E+12,128,128,-1,-1,-1,-1,-9.721465317,3.843210092,-5.878255225,-11.63124254,112.5274725,112.1167883,112.5274725,116.8060837
1.71E+12,128,128,-1,-1,-1,-1,-9.720549807,3.826291389,-5.894258418,-11.62577605,112.5274725,112.1167883,112.5274725,116.8060837
1.71E+12,128,128,-1,-1,-1,-1,-9.719669666,3.809371107,-5.910298559,-11.62027942,112.5274725,112.1167883,112.5274725,116.8060837
1.71E+12,128,128,-1,-1,-1,-1,-9.718825907,3.792453922,-5.926371985,-11.61475443,112.5274725,112.1167883,112.5274725,116.8060837
1.71E+12,128,128,-1,-1,-1,-1,-9.718019475,3.775544471,-5.942475004,-11.60920285,112.5274725,112.1167883,112.5274725,116.8060837
1.71E+12,128,128,-1,-1,-1,-1,-9.717251256,3.758647351,-5.958603905,-11.60362649,112.5274725,112.1167883,112.5274725,116.8060837
1.71E+12,128,128,-1,-1,-1,-1,-9.716522039,3.741767123,-5.974754916,-11.59802718,112.5274725,112.1167883,112.5274725,116.8060837
1.71E+12,128,128,-1,-1,-1,-1,-9.715832521,3.724908307,-5.990924214,-11.59240673,112.5274725,112.1167883,112.5274725,116.8060837
1.71E+12,128,128,-1,-1,-1,-1,-9.71518329,3.708075369,-6.007107921,-11.58676695,112.5274725,112.1167883,112.5274725,116.8060837
1.71E+12,128,128,-1,-1,-1,-1,-9.714574795,3.691272729,-6.023302066,-11.58110959,112.5274725,112.1167883,112.5274725,116.8060837
1.71E+12,128,128,-1,-1,-1,-1,-9.714007366,3.674504789,-6.039502577,-11.57543638,112.5274725,112.1167883,112.5274725,116.8060837
1.71E+12,128,128,-1,-1,-1,-1,-9.713481247,3.657776023,-6.055705224,-11.56974906,112.5274725,112.1167883,112.5274725,116.8060837
1.71E+12,128,128,-1,-1,-1,-1,-9.712996597,3.641090972,-6.071905625,-11.56404941,112.5274725,112.1167883,112.5274725,116.8060837
1.71E+12,128,128,-1,-1,-1,-1,-9.712553465,3.62445419,-6.088099274,-11.55833917,112.5274725,112.1167883,112.5274725,116.8060837
1.71E+12,128,128,-1,-1,-1,-1,-9.712151763,3.607870228,-6.104281536,-11.5526201,112.5274725,112.1167883,112.5274725,116.8060837
1.71E+12,128,128,-1,-1,-1,-1,-9.711791222,3.591343583,-6.12044764,-11.5468939,112.5274725,112.1167883,112.5274725,116.8060837
1.71E+12,128,128,-1,-1,-1,-1,-9.711471382,3.574878707,-6.136592675,-11.54116228,112.5274725,112.1167883,112.5274725,116.8060837
1.71E+12,128,128,-1,-1,-1,-1,-9.711191587,3.558480047,-6.15271154,-11.53542698,112.5274725,112.1167883,112.5274725,116.8060837
1.71E+12,128,128,-1,-1,-1,-1,-9.710950982,3.542152064,-6.168798919,-11.52968976,112.5274725,112.1167883,112.5274725,116.8060837
1.71E+12,128,128,-1,-1,-1,-1,-9.710748583,3.525899303,-6.18484928,-11.52395238,112.5274725,112.1167883,112.5274725,116.8060837
1.71E+12,128,128,-1,-1,-1,-1,-9.710583378,3.50972652,-6.200856858,-11.51821659,112.5274725,112.1167883,112.5274725,116.8060837
1.71E+12,128,128,-1,-1,-1,-1,-9.710454393,3.493638707,-6.216815686,-11.51248418,112.5274725,112.1167883,112.5274725,116.8060837
1.71E+12,128,128,-1,-1,-1,-1,-9.710360708,3.477641015,-6.232719693,-11.50675692,112.5274725,112.1167883,112.5274725,116.8060837
1.71E+12,128,128,-1,-1,-1,-1,-9.710301461,3.461738571,-6.24856289,-11.50103657,112.5274725,112.1167883,112.5274725,116.8060837
1.71E+12,128,128,-1,-1,-1,-1,-9.710275928,3.445936105,-6.264339823,-11.49532485,112.5274725,112.1167883,112.5274725,116.8060837
1.71E+12,128,128,-1,-1,-1,-1,-9.710283699,3.430237879,-6.280045819,-11.48962343,112.5274725,112.1167883,112.5274725,116.8060837
1.71E+12,128,128,-1,-1,-1,-1,-9.710324766,3.414648011,-6.295676755,-11.48393391,112.5274725,112.1167883,112.5274725,116.8060837
1.71E+12,128,128,-1,-1,-1,-1,-9.710399308,3.399170527,-6.311228781,-11.4782579,112.5274725,112.1167883,112.5274725,116.8060837
1.71E+12,128,128,-1,-1,-1,-1,-9.710507406,3.38380916,-6.326698246,-11.47259697,112.5274725,112.1167883,112.5274725,116.8060837
1.71E+12,128,128,-1,-1,-1,-1,-9.710648957,3.368567225,-6.342081733,-11.46695274,112.5274725,112.1167883,112.5274725,116.8060837
1.71E+12,128,128,-1,-1,-1,-1,-9.710823685,3.353447727,-6.357375958,-11.46132684,112.5274725,112.1167883,112.5274725,116.8060837
1.71E+12,128,128,-1,-1,-1,-1,-9.711030685,3.338453292,-6.372577392,-11.45572047,112.5274725,112.1167883,112.5274725,116.8060837
1.71E+12,128,128,-1,-1,-1,-1,-9.71126851,3.323586221,-6.387682289,-11.45013435,112.5274725,112.1167883,112.5274725,116.8060837
1.71E+12,128,128,-1,-1,-1,-1,-9.711535714,3.308848715,-6.402686999,-11.44456911,112.5274725,112.1167883,112.5274725,116.8060837
1.71E+12,128,128,-1,-1,-1,-1,-9.711830832,3.294242896,-6.417587937,-11.43902537,112.5274725,112.1167883,112.5274725,116.8060837
1.71E+12,128,128,-1,-1,-1,-1,-9.712152374,3.279770788,-6.432381585,-11.43350365,112.5274725,112.1167883,112.5274725,116.8060837
1.71E+12,128,128,-1,-1,-1,-1,-9.712498827,3.265434313,-6.447064514,-11.42800445,112.5274725,112.1167883,112.5274725,116.8060837
1.71E+12,128,128,-1,-1,-1,-1,-9.712868673,3.251235291,-6.461633382,-11.42252818,112.5274725,112.1167883,112.5274725,116.8060837
1.71E+12,128,128,-1,-1,-1,-1,-9.7132604,3.237175421,-6.476084979,-11.41707525,112.5274725,112.1167883,112.5274725,116.8060837
1.71E+12,128,128,-1,-1,-1,-1,-9.713672511,3.223256277,-6.490416234,-11.41164595,112.5274725,112.1167883,112.5274725,116.8060837
1.71E+12,128,128,-1,-1,-1,-1,-9.714103527,3.209479315,-6.504624212,-11.40624051,112.5274725,112.1167883,112.5274725,116.8060837
1.71E+12,128,128,-1,-1,-1,-1,-9.714551979,3.195845855,-6.518706124,-11.4008591,112.5274725,112.1167883,112.5274725,116.8060837
1.71E+12,128,128,-1,-1,-1,-1,-9.715016409,3.182357055,-6.532659355,-11.39550182,112.5274725,112.1167883,112.5274725,116.8060837
1.71E+12,128,128,-1,-1,-1,-1,-9.715495365,3.16901391,-6.546481455,-11.39016864,112.5274725,112.1167883,112.5274725,116.8060837
1.71E+12,128,128,-1,-1,-1,-1,-9.715987389,3.155817269,-6.560170119,-11.38485947,112.5274725,112.1167883,112.5274725,116.8060837
1.71E+12,128,128,-1,-1,-1,-1,-9.716491043,3.142767843,-6.5737232,-11.37957411,112.5274725,112.1167883,112.5274725,116.8060837
1.71E+12,128,128,-1,-1,-1,-1,-9.717004919,3.1298662,-6.587138719,-11.3743123,112.5274725,112.1167883,112.5274725,116.8060837
1.71E+12,128,128,-1,-1,-1,-1,-9.717527636,3.117112755,-6.60041488,-11.36907375,112.5274725,112.1167883,112.5274725,116.8060837
1.71E+12,128,128,-1,-1,-1,-1,-9.71805784,3.104507759,-6.613550081,-11.36385808,112.5274725,112.1167883,112.5274725,116.8060837
1.71E+12,128,128,-1,-1,-1,-1,-9.718594187,3.092051272,-6.626542915,-11.35866483,112.5274725,112.1167883,112.5274725,116.8060837
1.71E+12,128,128,-1,-1,-1,-1,-9.719135349,3.079743175,-6.639392174,-11.35349345,112.5274725,112.1167883,112.5274725,116.8060837
1.71E+12,128,128,-1,-1,-1,-1,-9.719680018,3.067583181,-6.652096836,-11.34834331,112.5274725,112.1167883,112.5274725,116.8060837
1.71E+12,128,128,-1,-1,-1,-1,-9.720226904,3.055570852,-6.664656052,-11.34321368,112.5274725,112.1167883,112.5274725,116.8060837
1.71E+12,128,128,-1,-1,-1,-1,-9.720774742,3.043705582,-6.67706916,-11.33810371,112.5274725,112.1167883,112.5274725,116.8060837
