Shimmer_86BB_TimestampSync_Unix_CAL,Shimmer_86BB_GSR_Range_LPF_CAL,Shimmer_86BB_GSR_Skin_Conductance_LPF_CAL,Shimmer_86BB_GSR_Skin_Resistance_LPF_CAL,Shimmer_86BB_PPG_A13_LPF_CAL,Shimmer_86BB_PPG_IBI_LPF_CAL,Shimmer_86BB_PPGtoHR_LPF_CAL
1.71E+12,3,0.837606838,1193.877551,2932.600733,-1,-1
1.71E+12,3,0.837606838,1193.877551,2932.600733,-1,-1
1.71E+12,3,0.837606837,1193.877551,2932.600732,-1,-1
1.71E+12,3,0.837606837,1193.877552,2932.600731,-1,-1
1.71E+12,3,0.837606836,1193.877553,2932.600729,-1,-1
1.71E+12,3,0.837606836,1193.877554,2932.600725,-1,-1
1.71E+12,3,0.837606835,1193.877555,2932.600717,-1,-1
1.71E+12,3,0.837606834,1193.877555,2932.600705,-1,-1
1.71E+12,3,0.837606834,1193.877557,2932.600685,-1,-1
1.71E+12,3,0.837606832,1193.877559,2932.600656,-1,-1
1.71E+12,3,0.837606829,1193.877563,2932.600612,-1,-1
1.71E+12,3,0.837606824,1193.87757,2932.600551,-1,-1
1.71E+12,3,0.837606815,1193.877583,2932.600468,-1,-1
1.71E+12,3,0.837606801,1193.877603,2932.60036,-1,-1
1.71E+12,3,0.83760678,1193.877633,2932.600225,-1,-1
1.71E+12,3,0.837606749,1193.877678,2932.600061,-1,-1
1.71E+12,3,0.837606706,1193.87774,2932.599865,-1,-1
1.71E+12,3,0.837606647,1193.877824,2932.599634,-1,-1
1.71E+12,3,0.837606569,1193.877934,2932.599363,-1,-1
1.71E+12,3,0.837606469,1193.878078,2932.599051,-1,-1
1.71E+12,3,0.837606342,1193.878259,2932.598693,-1,-1
1.71E+12,3,0.837606184,1193.878485,2932.598285,-1,-1
1.71E+12,3,0.83760599,1193.878762,2932.597823,-1,-1
1.71E+12,3,0.837605754,1193.879099,2932.597303,-1,-1
1.71E+12,3,0.837605471,1193.879504,2932.596721,-1,-1
1.71E+12,3,0.837605133,1193.879987,2932.596072,-1,-1
1.71E+12,3,0.837604734,1193.880557,2932.595351,-1,-1
1.71E+12,3,0.837604265,1193.881228,2932.594552,-1,-1
1.71E+12,3,0.837603717,1193.882011,2932.593669,-1,-1
1.71E+12,3,0.837603083,1193.882918,2932.592695,-1,-1
1.71E+12,3,0.837602354,1193.88396,2932.591621,-1,-1
1.71E+12,3,0.837601523,1193.885149,2932.590439,-1,-1
1.71E+12,3,0.83760058,1193.886496,2932.589142,-1,-1
1.71E+12,3,0.837599518,1193.888016,2932.587723,-1,-1
1.71E+12,3,0.837598326,1193.88972,2932.586176,-1,-1
1.71E+12,3,0.837596994,1193.891625,2932.584494,-1,-1
1.71E+12,3,0.837595511,1193.893747,2932.582668,-1,-1
1.71E+12,3,0.837593865,1193.8961,2932.580693,-1,-1
1.71E+12,3,0.837592044,1193.898704,2932.57856,-1,-1
1.71E+12,3,0.837590036,1193.901576,2932.576262,-1,-1
1.71E+12,3,0.837587826,1193.904736,2932.573791,-1,-1
1.71E+12,3,0.8375854,1193.908206,2932.57114,-1,-1
1.71E+12,3,0.837582742,1193.912008,2932.568301,-1,-1
1.71E+12,3,0.837579834,1193.916167,2932.565263,-1,-1
1.71E+12,3,0.837576657,1193.92071,2932.562018,-1,-1
1.71E+12,3,0.837573192,1193.925667,2932.558555,-1,-1
1.71E+12,3,0.837569416,1193.931068,2932.554864,-1,-1
1.71E+12,3,0.837565307,1193.936945,2932.550936,-1,-1
1.71E+12,3,0.837560843,1193.943331,2932.54676,-1,-1
1.71E+12,3,0.837555999,1193.950261,2932.54233,-1,-1
1.71E+12,3,0.837550752,1193.957768,2932.537638,-1,-1
1.71E+12,3,0.837545076,1193.965889,2932.532677,-1,-1
1.71E+12,3,0.837538946,1193.974662,2932.527441,-1,-1
1.71E+12,3,0.837532334,1193.984123,2932.521922,-1,-1
1.71E+12,3,0.837525214,1193.994312,2932.516114,-1,-1
1.71E+12,3,0.83751756,1194.005267,2932.510011,-1,-1
1.71E+12,3,0.837509342,1194.017028,2932.503607,-1,-1
1.71E+12,3,0.837500535,1194.029636,2932.496899,-1,-1
1.71E+12,3,0.837491107,1194.043131,2932.48988,-1,-1
1.71E+12,3,0.837481031,1194.057556,2932.482547,-1,-1
1.71E+12,3,0.837470275,1194.072955,2932.474897,-1,-1
1.71E+12,3,0.837458809,1194.089372,2932.466924,-1,-1
1.71E+12,3,0.837446602,1194.106851,2932.458624,-1,-1
1.71E+12,3,0.837433622,1194.125439,2932.449993,-1,-1
1.71E+12,3,0.837419836,1194.145181,2932.441029,-1,-1
1.71E+12,3,0.837405212,1194.166125,2932.431729,-1,-1
1.71E+12,3,0.837389716,1194.18832,2932.422096,-1,-1
1.71E+12,3,0.837373315,1194.211813,2932.412127,-1,-1
1.71E+12,3,0.837355974,1194.236654,2932.401827,-1,-1
1.71E+12,3,0.837337659,1194.262893,2932.391196,-1,-1
1.71E+12,3,0.837318336,1194.290578,2932.380237,-1,-1
1.71E+12,3,0.83729797,1194.31976,2932.368955,-1,-1
1.71E+12,3,0.837276525,1194.350489,2932.357353,-1,-1
1.71E+12,3,0.837253967,1194.382817,2932.345437,-1,-1
1.71E+12,3,0.837230259,1194.416796,2932.333213,-1,-1
1.71E+12,3,0.837205365,1194.452477,2932.320689,-1,-1
1.71E+12,3,0.83717925,1194.489912,2932.307872,-1,-1
1.71E+12,3,0.837151878,1194.529153,2932.294771,-1,-1
1.71E+12,3,0.837123213,1194.570251,2932.281394,-1,-1
1.71E+12,3,0.83709322,1194.613259,2932.267752,-1,-1
1.71E+12,3,0.837061862,1194.658228,2932.253854,-1,-1
1.71E+12,3,0.837029104,1194.705208,2932.239708,-1,-1
1.71E+12,3,0.836994914,1194.754249,2932.225324,-1,-1
1.71E+12,3,0.836959256,1194.8054,2932.210714,-1,-1
1.71E+12,3,0.836922098,1194.858709,2932.19589,-1,-1
1.71E+12,3,0.836883407,1194.914224,2932.180864,-1,-1
1.71E+12,3,0.836843151,1194.97199,2932.165651,-1,-1
1.71E+12,3,0.8368013,1195.032052,2932.150266,-1,-1
1.71E+12,3,0.836757824,1195.094454,2932.134725,-1,-1
1.71E+12,3,0.836712693,1195.159239,2932.119044,-1,-1
1.71E+12,3,0.836665879,1195.226447,2932.103239,-1,-1
1.71E+12,3,0.836617355,1195.29612,2932.087329,-1,-1
1.71E+12,3,0.836567093,1195.368297,2932.07133,-1,-1
1.71E+12,3,0.836515069,1195.443014,2932.05526,-1,-1
1.71E+12,3,0.836461257,1195.520307,2932.039138,-1,-1
1.71E+12,3,0.836405636,1195.600211,2932.022983,-1,-1
1.71E+12,3,0.836348182,1195.682759,2932.006812,-1,-1
1.71E+12,3,0.836288875,1195.76798,2931.990644,-1,-1
1.71E+12,3,0.836227695,1195.855904,2931.9745,-1,-1
1.71E+12,3,0.836164625,1195.946558,2931.958399,-1,-1
1.71E+12,3,0.836099647,1196.039968,2931.942359,-1,-1
1.71E+12,3,0.836032746,1196.136155,2931.926399,-1,-1
1.71E+12,3,0.835963908,1196.235141,2931.910538,-1,-1
1.71E+12,3,0.835893121,1196.336945,2931.894794,-1,-1
1.71E+12,3,0.835820373,1196.441585,2931.879182,-1,-1
1.71E+12,3,0.835745655,1196.549075,2931.863718,-1,-1
1.71E+12,3,0.835668958,1196.659427,2931.84842,-1,-1
1.71E+12,3,0.835590277,1196.772654,2931.8333,-1,-1
1.71E+12,3,0.835509606,1196.888762,2931.818377,-1,-1
1.71E+12,3,0.835426942,1197.007757,2931.803664,-1,-1
1.71E+12,3,0.835342283,1197.129643,2931.78918,-1,-1
1.71E+12,3,0.83525563,1197.254422,2931.774937,-1,-1
1.71E+12,3,0.835166985,1197.38209,2931.760953,-1,-1
1.71E+12,3,0.835076351,1197.512644,2931.74724,-1,-1
1.71E+12,3,0.834983735,1197.646076,2931.733812,-1,-1
1.71E+12,3,0.834889145,1197.782376,2931.720682,-1,-1
1.71E+12,3,0.834792589,1197.921532,2931.707863,-1,-1
1.71E+12,3,0.83469408,1198.063528,2931.695365,-1,-1
1.71E+12,3,0.83459363,1198.208347,2931.683199,-1,-1
1.71E+12,3,0.834491255,1198.355969,2931.671376,-1,-1
1.71E+12,3,0.834386971,1198.506371,2931.659903,-1,-1
1.71E+12,3,0.834280796,1198.659527,2931.64879,-1,-1
1.71E+12,3,0.834172751,1198.815411,2931.638043,-1,-1
1.71E+12,3,0.834062856,1198.973992,2931.627667,-1,-1
1.71E+12,3,0.833951136,1199.135239,2931.617667,-1,-1
1.71E+12,3,0.833837616,1199.299115,2931.608045,-1,-1
1.71E+12,3,0.833722322,1199.465583,2931.598801,-1,-1
1.71E+12,3,0.833605285,1199.634601,2931.589936,-1,-1
1.71E+12,3,0.833486536,1199.806124,2931.58145,-1,-1
1.71E+12,3,0.83336611,1199.980105,2931.573342,-1,-1
1.71E+12,3,0.833244041,1200.156495,2931.565613,-1,-1
1.71E+12,3,0.833120366,1200.33524,2931.55826,-1,-1
1.71E+12,3,0.832995125,1200.516286,2931.551282,-1,-1
1.71E+12,3,0.832868357,1200.699575,2931.544675,-1,-1
1.71E+12,3,0.832740106,1200.885048,2931.538436,-1,-1
1.71E+12,3,0.832610413,1201.072644,2931.53256,-1,-1
1.71E+12,3,0.832479325,1201.262298,2931.527042,-1,-1
1.71E+12,3,0.832346887,1201.453943,2931.521875,-1,-1
1.71E+12,3,0.832213148,1201.647514,2931.517052,-1,-1
1.71E+12,3,0.832078155,1201.842938,2931.512567,-1,-1
1.71E+12,3,0.83194196,1202.040146,2931.508411,-1,-1
1.71E+12,3,0.831804614,1202.239063,2931.504573,-1,-1
1.71E+12,3,0.831666168,1202.439614,2931.501042,-1,-1
1.71E+12,3,0.831526678,1202.641722,2931.497805,-1,-1
1.71E+12,3,0.831386198,1202.845309,2931.494851,-1,-1
1.71E+12,3,0.831244784,1203.050295,2931.492165,-1,-1
1.71E+12,3,0.831102492,1203.256597,2931.489735,-1,-1
1.71E+12,3,0.83095938,1203.464134,2931.48755,-1,-1
1.71E+12,3,0.830815507,1203.672822,2931.485597,-1,-1
1.71E+12,3,0.830670931,1203.882574,2931.483862,-1,-1
1.71E+12,3,0.830525713,1204.093305,2931.482335,-1,-1
1.71E+12,3,0.830379914,1204.304927,2931.481001,-1,-1
1.71E+12,3,0.830233595,1204.517351,2931.479849,-1,-1
1.71E+12,3,0.830086817,1204.730489,2931.478864,-1,-1
1.71E+12,3,0.829939642,1204.944252,2931.478034,-1,-1
1.71E+12,3,0.82979213,1205.158553,2931.477346,-1,-1
1.71E+12,3,0.829644344,1205.3733,2931.476787,-1,-1
1.71E+12,3,0.829496346,1205.588405,2931.476345,-1,-1
1.71E+12,3,0.829348198,1205.803778,2931.476006,-1,-1
1.71E+12,3,0.829199961,1206.019329,2931.47576,-1,-1
1.71E+12,3,0.829051697,1206.23497,2931.475593,-1,-1
1.71E+12,3,0.828903468,1206.45061,2931.475493,-1,-1
1.71E+12,3,0.828755334,1206.66616,2931.47545,-1,-1
1.71E+12,3,0.828607358,1206.881532,2931.47545,-1,-1
1.71E+12,3,0.828459601,1207.096636,2931.475482,-1,-1
1.71E+12,3,0.828312122,1207.311385,2931.475532,-1,-1
1.71E+12,3,0.828164981,1207.52569,2931.475588,-1,-1
1.71E+12,3,0.828018239,1207.739466,2931.475638,-1,-1
1.71E+12,3,0.827871954,1207.952627,2931.475671,-1,-1
1.71E+12,3,0.827726184,1208.165088,2931.475675,-1,-1
1.71E+12,3,0.827580985,1208.376765,2931.475644,-1,-1
1.71E+12,3,0.827436415,1208.587576,2931.475568,-1,-1
1.71E+12,3,0.827292529,1208.79744,2931.475442,-1,-1
1.71E+12,3,0.827149381,1209.006277,2931.475257,-1,-1
1.71E+12,3,0.827007025,1209.214007,2931.475008,-1,-1
1.71E+12,3,0.826865515,1209.420552,2931.474689,-1,-1
1.71E+12,3,0.826724903,1209.625836,2931.474296,-1,-1
1.71E+12,3,0.826585239,1209.829784,2931.473825,-1,-1
1.71E+12,3,0.826446572,1210.032325,2931.473273,-1,-1
1.71E+12,3,0.826308952,1210.233385,2931.472636,-1,-1
1.71E+12,3,0.826172424,1210.432896,2931.471913,-1,-1
1.71E+12,3,0.826037035,1210.63079,2931.471103,-1,-1
1.71E+12,3,0.825902832,1210.826998,2931.470202,-1,-1
1.71E+12,3,0.82576986,1211.021453,2931.46921,-1,-1
1.71E+12,3,0.825638162,1211.214089,2931.468127,-1,-1
1.71E+12,3,0.825507783,1211.404843,2931.46695,-1,-1
1.71E+12,3,0.825378764,1211.59365,2931.46568,-1,-1
1.71E+12,3,0.825251148,1211.78045,2931.464315,-1,-1
1.71E+12,3,0.825124974,1211.965182,2931.462856,-1,-1
1.71E+12,3,0.825000282,1212.147787,2931.461302,-1,-1
1.71E+12,3,0.824877112,1212.328206,2931.459655,-1,-1
1.71E+12,3,0.824755501,1212.506382,2931.457918,-1,-1
1.71E+12,3,0.824635488,1212.682258,2931.456094,-1,-1
1.71E+12,3,0.824517109,1212.85578,2931.454188,-0.99990647,-0.999936227
1.71E+12,3,0.8244004,1213.026894,2931.452204,-0.999611008,-0.999670993
1.71E+12,3,0.824285396,1213.195546,2931.450146,-0.999090456,-0.999050823
1.71E+12,3,0.824172133,1213.361683,2931.44802,-0.998320421,-0.997905607
1.71E+12,3,0.824060646,1213.525252,2931.445831,-0.997275155,-0.996047679
1.71E+12,3,0.823950969,1213.686202,2931.443584,-0.995927442,-0.993270816
1.71E+12,3,0.823843137,1213.84448,2931.441286,-0.994248493,-0.989349167
1.71E+12,3,0.823737184,1214.000034,2931.438943,-0.992207856,-0.984036114
1.71E+12,3,0.823633144,1214.152813,2931.43656,-0.98977333,-0.977063087
1.71E+12,3,0.823531051,1214.302766,2931.434147,-0.986910898,-0.968138318
1.71E+12,3,0.82343094,1214.44984,2931.431709,-0.983584672,-0.956945571
1.71E+12,3,0.823332845,1214.593983,2931.429253,-0.979756858,-0.943142839
1.71E+12,3,0.823236801,1214.735143,2931.426788,-0.975387725,-0.926361027
1.71E+12,3,0.823142842,1214.873268,2931.424321,-0.970435612,-0.906202629
1.71E+12,3,0.823051004,1215.008303,2931.421858,-0.964856934,-0.882240424
1.71E+12,3,0.822961323,1215.140194,2931.419408,-0.958606219,-0.854016187
1.71E+12,3,0.822873834,1215.268887,2931.416977,-0.951636164,-0.821039436
1.71E+12,3,0.822788576,1215.394326,2931.414573,-0.943897706,-0.782786238
1.71E+12,3,0.822705585,1215.516453,2931.412201,-0.935340122,-0.738698075
1.71E+12,3,0.8226249,1215.635212,2931.409866,-0.925911143,-0.688180788
1.71E+12,3,0.822546559,1215.750543,2931.407572,-0.915557094,-0.630603622
1.71E+12,3,0.822470602,1215.862388,2931.405322,-0.904223057,-0.565298372
1.71E+12,3,0.822397068,1215.970686,2931.40312,-0.891853044,-0.491558662
1.71E+12,3,0.822325999,1216.075376,2931.400971,-0.878390209,-0.408639355
1.71E+12,3,0.822257434,1216.176397,2931.398878,-0.86377706,-0.315756112
1.71E+12,3,0.822191416,1216.273687,2931.396846,-0.847955709,-0.212085124
1.71E+12,3,0.822127986,1216.367182,2931.39488,-0.830868126,-0.096763013
1.71E+12,3,0.822067186,1216.456821,2931.392984,-0.812456418,0.031113071
1.71E+12,3,0.822009058,1216.542538,2931.391161,-0.792663121,0.172485162
1.71E+12,3,0.821953644,1216.62427,2931.389414,-0.771431512,0.328333967
1.71E+12,3,0.821900988,1216.701954,2931.387747,-0.748705929,0.49967815
1.71E+12,3,0.821851133,1216.775524,2931.386162,-0.724432103,0.687573375
1.71E+12,3,0.821804122,1216.844916,2931.384662,-0.698557504,0.893111126
1.71E+12,3,0.821759997,1216.910065,2931.383251,-0.671031695,1.117417275
1.71E+12,3,0.821718804,1216.970904,2931.38193,-0.641806688,1.361650416
1.71E+12,3,0.821680585,1217.027371,2931.380703,-0.610837306,1.626999947
1.71E+12,3,0.82164538,1217.079402,2931.379572,-0.578081552,1.914683899
1.71E+12,3,0.821613231,1217.126939,2931.378537,-0.543500974,2.225946525
1.71E+12,3,0.821584177,1217.169921,2931.377599,-0.507061024,2.562055633
1.71E+12,3,0.821558258,1217.20829,2931.376756,-0.468731421,2.924299676
1.71E+12,3,0.821535512,1217.241988,2931.376006,-0.428486502,3.313984609
1.71E+12,3,0.821515977,1217.270958,2931.375351,-0.386305561,3.732430503
1.71E+12,3,0.821499691,1217.295145,2931.374789,-0.342173189,4.180967935
1.71E+12,3,0.821486689,1217.314494,2931.374318,-0.296079581,4.660934169
1.71E+12,3,0.821477008,1217.328953,2931.37394,-0.248020846,5.173669121
1.71E+12,3,0.821470681,1217.338472,2931.373651,-0.197999287,5.720511138
1.71E+12,3,0.82146774,1217.343003,2931.373451,-0.146023665,6.302792593
1.71E+12,3,0.821468217,1217.3425,2931.373338,-0.092109437,6.921835318
1.71E+12,3,0.82147214,1217.336918,2931.373311,-0.036278976,7.578945892
1.71E+12,3,0.82147954,1217.326217,2931.373369,0.021438241,8.275410793
1.71E+12,3,0.821490441,1217.310356,2931.373512,0.081005471,9.01249145
1.71E+12,3,0.82150487,1217.2893,2931.373739,0.142378574,9.791419191
1.71E+12,3,0.821522849,1217.263013,2931.37405,0.205505912,10.61339014
1.71E+12,3,0.8215444,1217.231467,2931.374442,0.27032828,11.47956004
1.71E+12,3,0.821569538,1217.194636,2931.374912,0.336778874,12.3910391
1.71E+12,3,0.821598279,1217.1525,2931.375455,0.404783288,13.34888678
1.71E+12,3,0.821630633,1217.105042,2931.376066,0.474259555,14.35410667
1.71E+12,3,0.821666609,1217.052252,2931.37674,0.545118216,15.40764135
1.71E+12,3,0.821706213,1216.994121,2931.377474,0.617262431,16.51036737
1.71E+12,3,0.821749445,1216.93065,2931.378263,0.690588125,17.66302653
1.71E+12,3,0.821796304,1216.861839,2931.379105,0.764984169,18.86621098
1.71E+12,3,0.821846786,1216.787697,2931.379998,0.840332606,20.12041662
1.71E+12,3,0.821900882,1216.708238,2931.380939,0.916508901,21.42603782
1.71E+12,3,0.821958581,1216.62348,2931.381924,0.993382237,22.78336218
1.71E+12,3,0.822019867,1216.533446,2931.382952,1.070815842,24.1925655
1.71E+12,3,0.822084723,1216.438162,2931.38402,1.148667351,25.65370687
1.71E+12,3,0.822153129,1216.33766,2931.385126,1.226789198,27.16672401
1.71E+12,3,0.822225061,1216.231978,2931.386269,1.305029045,28.7314288
1.71E+12,3,0.822300492,1216.121155,2931.387448,1.383230235,30.34750312
1.71E+12,3,0.822379391,1216.005238,2931.388661,1.461232278,32.01449495
1.71E+12,3,0.822461726,1215.884277,2931.389906,1.538871359,33.73181479
1.71E+12,3,0.82254746,1215.758327,2931.39118,1.615980871,35.49873245
1.71E+12,3,0.822636552,1215.627451,2931.392479,1.692391972,37.31437424
1.71E+12,3,0.82272896,1215.491712,2931.393801,1.767934161,39.17772046
1.71E+12,3,0.822824637,1215.351182,2931.395145,1.842435864,41.08760343
1.71E+12,3,0.822923533,1215.205934,2931.396508,1.915725045,43.04270591
1.71E+12,3,0.823025597,1215.056048,2931.397889,1.987629817,45.04156003
1.71E+12,3,0.823130772,1214.901607,2931.399287,2.057979072,47.08254662
1.71E+12,3,0.823239002,1214.742697,2931.400702,2.126603108,49.16389521
1.71E+12,3,0.823350226,1214.579409,2931.402132,2.193334262,51.28368437
1.71E+12,3,0.823464382,1214.411837,2931.403577,2.258007541,53.43984275
1.71E+12,3,0.823581406,1214.240076,2931.405036,2.320461254,55.63015057
1.71E+12,3,0.823701232,1214.064227,2931.406506,2.380537627,57.8522417
1.71E+12,3,0.823823792,1213.884391,2931.407985,2.438083421,60.10360634
1.71E+12,3,0.823949014,1213.700675,2931.409471,2.492950528,62.38159422
1.71E+12,3,0.824076829,1213.513184,2931.410961,2.544996552,64.68341843
1.71E+12,3,0.824207163,1213.32203,2931.412454,2.594085377,67.00615974
1.71E+12,3,0.824339941,1213.127323,2931.413951,2.640087706,69.3467716
1.71E+12,3,0.824475088,1212.929178,2931.41545,2.682881584,71.70208565
1.71E+12,3,0.824612525,1212.72771,2931.416955,2.722352882,74.06881771
1.71E+12,3,0.824752176,1212.523037,2931.418465,2.758395767,76.44357447
1.71E+12,3,0.824893961,1212.315274,2931.419981,2.790913128,78.82286059
1.71E+12,3,0.825037804,1212.10454,2931.421501,2.819816971,81.20308631
1.71E+12,3,0.825183622,1211.890955,2931.423023,2.845028781,83.58057564
1.71E+12,3,0.825331337,1211.674638,2931.424548,2.866479847,85.95157494
1.71E+12,3,0.825480867,1211.455711,2931.426072,2.884111539,88.31226193
1.71E+12,3,0.825632133,1211.234291,2931.427595,2.897875553,90.65875521
1.71E+12,3,0.825785055,1211.0105,2931.429115,2.907734111,92.98712404
1.71E+12,3,0.825939553,1210.784457,2931.430629,2.913660116,95.29339856
1.71E+12,3,0.826095546,1210.556279,2931.432133,2.915637265,97.57358031
1.71E+12,3,0.826252958,1210.326085,2931.433624,2.913660116,99.82365298
1.71E+12,3,0.826411714,1210.093983,2931.435096,2.907734111,102.0395935
1.71E+12,3,0.826571757,1209.860063,2931.436549,2.897875553,104.2173832
1.71E+12,3,0.82673304,1209.624399,2931.437979,2.884111539,106.3530192
1.71E+12,3,0.826895524,1209.387054,2931.439384,2.866479847,108.442526
1.71E+12,3,0.827059177,1209.148083,2931.440762,2.845028781,110.481967
1.71E+12,3,0.827223971,1208.907532,2931.442112,2.819816971,112.4674561
1.71E+12,3,0.827389887,1208.665441,2931.44343,2.790913128,114.3951694
1.71E+12,3,0.82755691,1208.421839,2931.444717,2.758395767,116.2613565
1.71E+12,3,0.827725033,1208.176746,2931.445969,2.722352882,118.0623521
1.71E+12,3,0.827894255,1207.930172,2931.447186,2.682881584,119.7945872
1.71E+12,3,0.828064585,1207.682119,2931.448368,2.640087706,121.4546002
1.71E+12,3,0.828236035,1207.432576,2931.449513,2.594085377,123.0390477
1.71E+12,3,0.828408629,1207.181524,2931.45062,2.544996552,124.544715
1.71E+12,3,0.828582397,1206.92893,2931.451686,2.492950528,125.9685261
1.71E+12,3,0.828757377,1206.674753,2931.452707,2.438083421,127.3075541
1.71E+12,3,0.828933618,1206.418936,2931.453675,2.380537627,128.5590299
1.71E+12,3,0.829111177,1206.161411,2931.454587,2.320461254,129.7203514
1.71E+12,3,0.829290121,1205.902096,2931.455436,2.258007541,130.7890921
1.71E+12,3,0.829470527,1205.640897,2931.456219,2.193334262,131.7630087
1.71E+12,3,0.829652481,1205.377705,2931.456933,2.126603108,132.6400488
1.71E+12,3,0.82983608,1205.112399,2931.457575,2.057979072,133.4183572
1.71E+12,3,0.830021431,1204.844843,2931.458141,1.987629817,134.0962822
1.71E+12,3,0.83020865,1204.574889,2931.45863,1.915725045,134.6723812
1.71E+12,3,0.830397864,1204.302372,2931.459039,1.842435864,135.1454254
1.71E+12,3,0.830589212,1204.027116,2931.459367,1.767934161,135.5144037
1.71E+12,3,0.830782841,1203.748927,2931.45961,1.692391972,135.778526
1.71E+12,3,0.830978911,1203.467597,2931.459768,1.615980871,135.9372264
1.71E+12,3,0.831177594,1203.182903,2931.459841,1.538871359,135.9901644
1.71E+12,3,0.831379071,1202.894609,2931.459826,1.461232278,135.9372264
1.71E+12,3,0.831583534,1202.602462,2931.459725,1.383230235,135.778526
1.71E+12,3,0.831791185,1202.306198,2931.459536,1.305029045,135.5144037
1.71E+12,3,0.832002237,1202.005535,2931.45926,1.226789198,135.1454254
1.71E+12,3,0.832216914,1201.700181,2931.458896,1.148667351,134.6723812
1.71E+12,3,0.832435446,1201.389832,2931.458445,1.070815842,134.0962822
1.71E+12,3,0.832658074,1201.074171,2931.457907,0.993382237,133.4183572
1.71E+12,3,0.832885048,1200.752867,2931.457285,0.916508901,132.6400488
1.71E+12,3,0.833116626,1200.425582,2931.456577,0.840332606,131.7630087
1.71E+12,3,0.833353072,1200.091963,2931.455785,0.764984169,130.7890921
1.71E+12,3,0.83359466,1199.751652,2931.454912,0.690588125,129.7203514
1.71E+12,3,0.833841669,1199.404278,2931.453959,0.617262431,128.5590299
1.71E+12,3,0.834094383,1199.049467,2931.452928,0.545118216,127.3075541
1.71E+12,3,0.83435309,1198.686835,2931.451823,0.474259555,125.9685261
1.71E+12,3,0.834618083,1198.315997,2931.450648,0.404783288,124.544715
1.71E+12,3,0.834889657,1197.936559,2931.449405,0.336778874,123.0390477
1.71E+12,3,0.835168111,1197.548128,2931.448098,0.27032828,121.4546002
1.71E+12,3,0.835453742,1197.150308,2931.446727,0.205505912,119.7945872
1.71E+12,3,0.835746849,1196.742704,2931.4453,0.142378574,118.0623521
1.71E+12,3,0.83604773,1196.324922,2931.443822,0.081005471,116.2613565
1.71E+12,3,0.836356677,1195.896573,2931.4423,0.021438241,114.3951694
1.71E+12,3,0.836673981,1195.457271,2931.440743,-0.036278976,112.4674561
1.71E+12,3,0.836999928,1195.006638,2931.439158,-0.092109437,110.481967
1.71E+12,3,0.837334797,1194.544304,2931.437553,-0.146023665,108.442526
1.71E+12,3,0.837678861,1194.069908,2931.435935,-0.197999287,106.3530192
1.71E+12,3,0.838032381,1193.583101,2931.434308,-0.248020846,104.2173832
1.71E+12,3,0.838395612,1193.083548,2931.432679,-0.296079581,102.0395935
1.71E+12,3,0.838768795,1192.570929,2931.431051,-0.342173189,99.82365298
1.71E+12,3,0.839152161,1192.044938,2931.429431,-0.386305561,97.57358031
1.71E+12,3,0.839545924,1191.505291,2931.427822,-0.428486502,95.29339856
1.71E+12,3,0.839950286,1190.951721,2931.426229,-0.468731421,92.98712404
1.71E+12,3,0.840365433,1190.383982,2931.424657,-0.507061024,90.65875521
1.71E+12,3,0.840791534,1189.801851,2931.423112,-0.543500974,88.31226193
1.71E+12,3,0.841228739,1189.205128,2931.421603,-0.578081552,85.95157494
1.71E+12,3,0.84167718,1188.593641,2931.420135,-0.610837306,83.58057564
1.71E+12,3,0.842136966,1187.967245,2931.418715,-0.641806688,81.20308631
1.71E+12,3,0.842608186,1187.325824,2931.41735,-0.671031695,78.82286059
1.71E+12,3,0.843090907,1186.66929,2931.416047,-0.698557504,76.44357447
1.71E+12,3,0.843585171,1185.997588,2931.414812,-0.724432103,74.06881771
1.71E+12,3,0.844090997,1185.310694,2931.413653,-0.748705929,71.70208565
1.71E+12,3,0.84460838,1184.608618,2931.412575,-0.771431512,69.3467716
1.71E+12,3,0.845137289,1183.891402,2931.411587,-0.792663121,67.00615974
1.71E+12,3,0.845677666,1183.159126,2931.410694,-0.812456418,64.68341843
1.71E+12,3,0.846229427,1182.411901,2931.409905,-0.830868126,62.38159422
1.71E+12,3,0.846792461,1181.649878,2931.409226,-0.847955709,60.10360634
1.71E+12,3,0.847366631,1180.873242,2931.408661,-0.86377706,57.8522417
1.71E+12,3,0.847951773,1180.082212,2931.408212,-0.878390209,55.63015057
1.71E+12,3,0.848547695,1179.277046,2931.407881,-0.891853044,53.43984275
1.71E+12,3,0.849154179,1178.458035,2931.407667,-0.904223057,51.28368437
1.71E+12,3,0.849770979,1177.625508,2931.407571,-0.915557094,49.16389521
1.71E+12,3,0.850397825,1176.779828,2931.407594,-0.925911143,47.08254662
1.71E+12,3,0.851034418,1175.921394,2931.407736,-0.935340122,45.04156003
1.71E+12,3,0.851680432,1175.050641,2931.407998,-0.943897706,43.04270591
1.71E+12,3,0.852335518,1174.168037,2931.408379,-0.951636164,41.08760343
1.71E+12,3,0.852999301,1173.274082,2931.408879,-0.958606219,39.17772046
1.71E+12,3,0.853671382,1172.36931,2931.409498,-0.964856934,37.31437424
1.71E+12,3,0.85435134,1171.454283,2931.410234,-0.970435612,35.49873245
1.71E+12,3,0.855038729,1170.529595,2931.411085,-0.975387725,33.73181479
1.71E+12,3,0.855733083,1169.595869,2931.412049,-0.979756858,32.01449495
1.71E+12,3,0.856433917,1168.653753,2931.413122,-0.983584672,30.34750312
1.71E+12,3,0.857140725,1167.703923,2931.414302,-0.986910898,28.7314288
1.71E+12,3,0.85785298,1166.747081,2931.415581,-0.98977333,27.16672401
1.71E+12,3,0.858570142,1165.783947,2931.416957,-0.992207856,25.65370687
1.71E+12,3,0.859291656,1164.815264,2931.418426,-0.994248493,24.1925655
1.71E+12,3,0.860016951,1163.841793,2931.419985,-0.995927442,22.78336218
1.71E+12,3,0.860745444,1162.86431,2931.421631,-0.997275155,21.42603782
1.71E+12,3,0.861476542,1161.883608,2931.423359,-0.998320421,20.12041662
1.71E+12,3,0.862209641,1160.900491,2931.425164,-0.999090456,18.86621098
1.71E+12,3,0.862944131,1159.915772,2931.427039,-0.999611008,17.66302653
1.71E+12,3,0.863679397,1158.930273,2931.428977,-0.99990647,16.51036737
1.71E+12,3,0.864414818,1157.94482,2931.43097,-1,15.40764135
1.71E+12,3,0.865149772,1156.960242,2931.433008,-1,14.35410667
1.71E+12,3,0.865883636,1155.97737,2931.435082,-1,13.34888678
1.71E+12,3,0.866615789,1154.99703,2931.43718,-1,12.3910391
1.71E+12,3,0.867345614,1154.020048,2931.439294,-1,11.47956004
1.71E+12,3,0.868072495,1153.047239,2931.441417,-1,10.61339014
1.71E+12,3,0.868795827,1152.079413,2931.443539,-1,9.791419191
1.71E+12,3,0.869515009,1151.117369,2931.445653,-1,9.01249145
1.71E+12,3,0.870229453,1150.16189,2931.447752,-1,8.275410793
1.71E+12,3,0.87093858,1149.213746,2931.449827,-1,7.578945892
1.71E+12,3,0.871641827,1148.273689,2931.451871,-1,6.921835318
1.71E+12,3,0.872338642,1147.342452,2931.453876,-1,6.302792593
1.71E+12,3,0.873028491,1146.420747,2931.455835,-1,5.720511138
1.71E+12,3,0.873710856,1145.509261,2931.457742,-1,5.173669121
1.71E+12,3,0.874385238,1144.608659,2931.459589,-1,4.660934169
1.71E+12,3,0.875051157,1143.719579,2931.461367,-1,4.180967935
1.71E+12,3,0.875708156,1142.842629,2931.46307,-1,3.732430503
1.71E+12,3,0.876355799,1141.978389,2931.464689,-1,3.313984609
1.71E+12,3,0.876993671,1141.127409,2931.46622,-1,2.924299676
1.71E+12,3,0.877621384,1140.290204,2931.467657,-1,2.562055633
1.71E+12,3,0.878238572,1139.467261,2931.468997,-1,2.225946525
1.71E+12,3,0.878844895,1138.659031,2931.470237,-1,1.914683899
1.71E+12,3,0.879440039,1137.865928,2931.471371,-1,1.626999947
1.71E+12,3,0.880023716,1137.088335,2931.472395,-1,1.361650416
1.71E+12,3,0.880595664,1136.326597,2931.473305,-1,1.117417275
1.71E+12,3,0.88115565,1135.581023,2931.474098,-1,0.893111126
1.71E+12,3,0.881703469,1134.851884,2931.47477,-1,0.687573375
1.71E+12,3,0.882238943,1134.139414,2931.475317,-1,0.49967815
1.71E+12,3,0.882761921,1133.443808,2931.475737,-1,0.328333967
1.71E+12,3,0.883272283,1132.765227,2931.476025,-1,0.172485162
1.71E+12,3,0.883769933,1132.103794,2931.476179,-1,0.031113071
1.71E+12,3,0.884254803,1131.459597,2931.476196,-1,-0.096763013
1.71E+12,3,0.884726851,1130.832688,2931.476075,-1,-0.212085124
1.71E+12,3,0.88518606,1130.223085,2931.475817,-1,-0.315756112
1.71E+12,3,0.88563244,1129.630772,2931.475422,-1,-0.408639355
1.71E+12,3,0.886066026,1129.055701,2931.474892,-1,-0.491558662
1.71E+12,3,0.886486874,1128.497789,2931.47423,-1,-0.565298372
1.71E+12,3,0.886895067,1127.956925,2931.473439,-1,-0.630603622
1.71E+12,3,0.887290708,1127.432966,2931.472523,-1,-0.688180788
1.71E+12,3,0.887673924,1126.925741,2931.471488,-1,-0.738698075
1.71E+12,3,0.888044858,1126.435051,2931.470339,-1,-0.782786238
1.71E+12,3,0.888403678,1125.960673,2931.469078,-1,-0.821039436
1.71E+12,3,0.888750564,1125.502358,2931.467711,-1,-0.854016187
1.71E+12,3,0.88908572,1125.059834,2931.466241,-1,-0.882240424
1.71E+12,3,0.88940936,1124.63281,2931.464674,-1,-0.906202629
1.71E+12,3,0.889721716,1124.22097,2931.463015,-1,-0.926361027
1.71E+12,3,0.890023035,1123.823985,2931.46127,-1,-0.943142839
1.71E+12,3,0.890313573,1123.441505,2931.459444,-1,-0.956945571
1.71E+12,3,0.890593601,1123.073168,2931.457543,-1,-0.968138318
1.71E+12,3,0.890863397,1122.718597,2931.455573,-1,-0.977063087
1.71E+12,3,0.891123249,1122.377405,2931.453537,-1,-0.984036114
1.71E+12,3,0.891373453,1122.049191,2931.45144,-1,-0.989349167
1.71E+12,3,0.891614312,1121.73355,2931.449287,-1,-0.993270816
1.71E+12,3,0.891846133,1121.430068,2931.447084,-1,-0.996047679
1.71E+12,3,0.892069227,1121.138323,2931.444837,-1,-0.997905607
1.71E+12,3,0.89228391,1120.857894,2931.442554,-1,-0.999050823
1.71E+12,3,0.892490497,1120.588353,2931.440244,-1,-0.999670993
1.71E+12,3,0.892689307,1120.329274,2931.437914,-1,-0.999936227
1.71E+12,3,0.892880656,1120.08023,2931.435571,-1,-1
1.71E+12,3,0.893064861,1119.840796,2931.433222,-1,-1
1.71E+12,3,0.893242236,1119.610549,2931.430872,-1,-1
1.71E+12,3,0.893413091,1119.389072,2931.428529,-1,-1
1.71E+12,3,0.893577732,1119.175952,2931.426197,-1,-1
1.71E+12,3,0.893736462,1118.970784,2931.423884,-1,-1
1.71E+12,3,0.893889577,1118.773167,2931.421596,-1,-1
1.71E+12,3,0.894037369,1118.582712,2931.419338,-1,-1
1.71E+12,3,0.89418012,1118.399037,2931.417117,-1,-1
1.71E+12,3,0.894318108,1118.221769,2931.414938,-1,-1
1.71E+12,3,0.894451602,1118.050547,2931.412806,-1,-1
1.71E+12,3,0.894580861,1117.885021,2931.410726,-1,-1
1.71E+12,3,0.894706139,1117.72485,2931.408701,-1,-1
1.71E+12,3,0.89482768,1117.569707,2931.406736,-1,-1
1.71E+12,3,0.894945717,1117.419275,2931.404833,-1,-1
1.71E+12,3,0.895060478,1117.273252,2931.402996,-1,-1
1.71E+12,3,0.895172177,1117.131346,2931.401223,-1,-1
1.71E+12,3,0.895281022,1116.993279,2931.399516,-1,-1
1.71E+12,3,0.895387209,1116.858785,2931.397878,-1,-1
1.71E+12,3,0.895490926,1116.727613,2931.396309,-1,-1
1.71E+12,3,0.895592349,1116.599524,2931.394812,-1,-1
1.71E+12,3,0.895691646,1116.474292,2931.393386,-1,-1
1.71E+12,3,0.895788974,1116.351705,2931.392033,-1,-1
1.71E+12,3,0.895884481,1116.231564,2931.390754,-1,-1
1.71E+12,3,0.895978305,1116.113682,2931.389549,-1,-1
1.71E+12,3,0.896070575,1115.997885,2931.388421,-1,-1
1.71E+12,3,0.89616141,1115.884011,2931.38737,-1,-1
1.71E+12,3,0.89625092,1115.771912,2931.386398,-1,-1
1.71E+12,3,0.896339206,1115.66145,2931.385506,-1,-1
1.71E+12,3,0.896426362,1115.552499,2931.384693,-1,-1
1.71E+12,3,0.896512472,1115.444942,2931.383958,-1,-1
1.71E+12,3,0.896597614,1115.338675,2931.383298,-1,-1
1.71E+12,3,0.896681858,1115.233602,2931.382708,-1,-1
1.71E+12,3,0.896765264,1115.129638,2931.382186,-1,-1
1.71E+12,3,0.896847887,1115.02671,2931.381725,-1,-1
1.71E+12,3,0.896929775,1114.92475,2931.381319,-1,-1
1.71E+12,3,0.897010971,1114.823699,2931.380965,-1,-1
1.71E+12,3,0.897091509,1114.723507,2931.380656,-1,-1
1.71E+12,3,0.897171422,1114.624131,2931.380389,-1,-1
1.71E+12,3,0.897250732,1114.525534,2931.380159,-1,-1
1.71E+12,3,0.897329461,1114.427688,2931.379963,-1,-1
1.71E+12,3,0.897407622,1114.33057,2931.379799,-1,-1
1.71E+12,3,0.897485226,1114.234162,2931.379665,-1,-1
1.71E+12,3,0.897562278,1114.138456,2931.37956,-1,-1
1.71E+12,3,0.897638774,1114.043455,2931.379481,-1,-1
1.71E+12,3,0.897714694,1113.94918,2931.379423,-1,-1
1.71E+12,3,0.897790009,1113.855666,2931.379384,-1,-1
1.71E+12,3,0.897864689,1113.762954,2931.379357,-1,-1
1.71E+12,3,0.897938697,1113.671086,2931.379339,-1,-1
1.71E+12,3,0.898011998,1113.580105,2931.379327,-1,-1
1.71E+12,3,0.898084556,1113.490056,2931.379315,-1,-1
1.71E+12,3,0.898156335,1113.400984,2931.379303,-1,-1
1.71E+12,3,0.898227298,1113.312933,2931.379287,-1,-1
1.71E+12,3,0.898297408,1113.225949,2931.379265,-1,-1
1.71E+12,3,0.89836663,1113.140074,2931.379235,-1,-1
1.71E+12,3,0.898434928,1113.055354,2931.379196,-1,-1
1.71E+12,3,0.898502266,1112.971831,2931.379147,-1,-1
1.71E+12,3,0.89856861,1112.889548,2931.379089,-1,-1
1.71E+12,3,0.898633924,1112.808548,2931.379021,-1,-1
1.71E+12,3,0.898698176,1112.728872,2931.378944,-1,-1
1.71E+12,3,0.898761329,1112.650563,2931.378857,-1,-1
1.71E+12,3,0.898823352,1112.573662,2931.378759,-1,-1
1.71E+12,3,0.89888421,1112.498209,2931.378646,-1,-1
1.71E+12,3,0.898943871,1112.424243,2931.378515,-1,-1
1.71E+12,3,0.899002305,1112.351803,2931.378364,-1,-1
1.71E+12,3,0.899059483,1112.280924,2931.37819,-1,-1
1.71E+12,3,0.899115377,1112.211639,2931.377992,-1,-1
1.71E+12,3,0.899169961,1112.143981,2931.377768,-1,-1
1.71E+12,3,0.899223209,1112.077979,2931.377518,-1,-1
1.71E+12,3,0.899275099,1112.013664,2931.377242,-1,-1
1.71E+12,3,0.899325607,1111.951062,2931.376943,-1,-1
1.71E+12,3,0.899374713,1111.890199,2931.376622,-1,-1
1.71E+12,3,0.899422398,1111.831098,2931.37628,-1,-1
1.71E+12,3,0.899468645,1111.773779,2931.375922,-1,-1
1.71E+12,3,0.899513439,1111.718262,2931.375552,-1,-1
1.71E+12,3,0.899556766,1111.664561,2931.375172,-1,-1
1.71E+12,3,0.899598616,1111.612692,2931.374789,-1,-1
1.71E+12,3,0.899638979,1111.562663,2931.374405,-0.999911376,-0.999932701
1.71E+12,3,0.899677849,1111.514483,2931.374022,-0.999631412,-0.999652805
1.71E+12,3,0.899715223,1111.468157,2931.373644,-0.999138166,-0.998998351
1.71E+12,3,0.8997511,1111.423685,2931.373272,-0.998408523,-0.997789824
1.71E+12,3,0.89978548,1111.381065,2931.372911,-0.997418087,-0.995829186
1.71E+12,3,0.899818369,1111.340293,2931.372561,-0.996141067,-0.992898813
1.71E+12,3,0.899849773,1111.301358,2931.372225,-0.994550188,-0.988760367
1.71E+12,3,0.899879702,1111.264249,2931.371904,-0.992616592,-0.983153598
1.71E+12,3,0.89990817,1111.228949,2931.371597,-0.990309769,-0.975795088
1.71E+12,3,0.899935192,1111.195439,2931.371306,-0.987597485,-0.96637694
1.71E+12,3,0.899960788,1111.163694,2931.371033,-0.984445737,-0.954565435
1.71E+12,3,0.899984978,1111.133689,2931.370779,-0.980818709,-0.93999966
1.71E+12,3,0.900007786,1111.105395,2931.370549,-0.976678759,-0.922290115
1.71E+12,3,0.900029239,1111.078778,2931.370345,-0.971986409,-0.90101732
1.71E+12,3,0.900049368,1111.0538,2931.370168,-0.96670036,-0.875730436
1.71E+12,3,0.900068204,1111.030422,2931.370019,-0.960777525,-0.845945906
1.71E+12,3,0.900085783,1111.0086,2931.3699,-0.954173084,-0.811146133
1.71E+12,3,0.900102142,1110.988288,2931.369811,-0.946840546,-0.770778222
1.71E+12,3,0.900117321,1110.969436,2931.369754,-0.938731849,-0.724252776
1.71E+12,3,0.900131364,1110.951992,2931.369729,-0.929797466,-0.670942791
1.71E+12,3,0.900144315,1110.935898,2931.369738,-0.919986538,-0.610182642
1.71E+12,3,0.900156223,1110.921098,2931.369781,-0.909247026,-0.541267186
1.71E+12,3,0.900167135,1110.90753,2931.36986,-0.897525881,-0.463450996
1.71E+12,3,0.900177102,1110.895131,2931.369977,-0.884769237,-0.375947741
1.71E+12,3,0.900186179,1110.883836,2931.370135,-0.870922619,-0.277929724
1.71E+12,3,0.90019442,1110.873576,2931.370334,-0.855931176,-0.168527594
1.71E+12,3,0.900201881,1110.864283,2931.370575,-0.83973992,-0.046830244
1.71E+12,3,0.900208619,1110.855886,2931.370855,-0.822293995,0.08811509
1.71E+12,3,0.900214694,1110.848311,2931.371171,-0.803538954,0.237302515
1.71E+12,3,0.900220166,1110.841484,2931.371519,-0.783421047,0.401766958
1.71E+12,3,0.900225098,1110.835327,2931.371895,-0.761887531,0.582583394
1.71E+12,3,0.900229552,1110.829764,2931.372296,-0.738886986,0.780865848
1.71E+12,3,0.90023359,1110.824717,2931.372718,-0.714369637,0.997766142
1.71E+12,3,0.900237278,1110.820107,2931.37316,-0.688287691,1.234472389
1.71E+12,3,0.900240677,1110.815856,2931.373619,-0.660595678,1.492207233
1.71E+12,3,0.900243853,1110.811884,2931.374093,-0.631250792,1.772225823
1.71E+12,3,0.900246868,1110.808115,2931.37458,-0.600213238,2.075813527
1.71E+12,3,0.900249786,1110.804469,2931.375077,-0.56744658,2.404283381
1.71E+12,3,0.900252669,1110.800868,2931.375582,-0.532918083,2.75897328
1.71E+12,3,0.90025558,1110.797238,2931.376094,-0.496599056,3.141242908
1.71E+12,3,0.900258581,1110.7935,2931.376612,-0.458465179,3.552470413
1.71E+12,3,0.90026173,1110.789582,2931.377136,-0.418496835,3.994048843
1.71E+12,3,0.900265087,1110.785412,2931.377663,-0.376679421,4.467382332
1.71E+12,3,0.900268709,1110.780917,2931.378192,-0.333003648,4.973882071
1.71E+12,3,0.900272652,1110.776031,2931.378719,-0.287465829,5.51496205
1.71E+12,3,0.900276969,1110.770685,2931.379237,-0.240068146,6.092034601
1.71E+12,3,0.900281714,1110.764816,2931.379744,-0.190818898,6.706438454
1.71E+12,3,0.900286937,1110.75836,2931.380235,-0.139732735,7.359423219
1.71E+12,3,0.900292688,1110.751256,2931.380709,-0.086830855,8.052205741
1.71E+12,3,0.900299013,1110.743447,2931.381163,-0.032141189,8.785964107
1.71E+12,3,0.90030596,1110.734874,2931.381597,0.024301449,9.561831436
1.71E+12,3,0.900313571,1110.725486,2931.382008,0.082455233,10.38088951
1.71E+12,3,0.900321888,1110.715229,2931.382395,0.142271233,11.24416222
1.71E+12,3,0.900330951,1110.704057,2931.382759,0.203693351,12.15260898
1.71E+12,3,0.900340796,1110.691922,2931.383099,0.266658286,13.10711794
1.71E+12,3,0.90035146,1110.678781,2931.383417,0.331095537,14.10849924
1.71E+12,3,0.900362976,1110.664593,2931.383714,0.396927434,15.15747821
1.71E+12,3,0.900375374,1110.64932,2931.383988,0.464069212,16.25468865
1.71E+12,3,0.900388683,1110.632926,2931.384236,0.53242911,17.40066604
1.71E+12,3,0.900402932,1110.615377,2931.384456,0.601908513,18.59584105
1.71E+12,3,0.900418146,1110.596642,2931.384649,0.672402121,19.84053298
1.71E+12,3,0.900434348,1110.576692,2931.384815,0.743798164,21.13494357
1.71E+12,3,0.900451559,1110.555499,2931.384956,0.815978639,22.4791509
1.71E+12,3,0.9004698,1110.533041,2931.385072,0.888819593,23.87310363
1.71E+12,3,0.900489088,1110.509296,2931.385166,0.962191427,25.31661549
1.71E+12,3,0.900509438,1110.484245,2931.385241,1.035959244,26.80936017
1.71E+12,3,0.900530864,1110.457871,2931.3853,1.109983218,28.35086658
1.71E+12,3,0.900553378,1110.430159,2931.385347,1.184119002,29.94051448
1.71E+12,3,0.90057699,1110.401098,2931.385387,1.258218158,31.57753062
1.71E+12,3,0.900601706,1110.370679,2931.385422,1.332128613,33.26098538
1.71E+12,3,0.900627533,1110.338895,2931.385454,1.405695144,34.98978989
1.71E+12,3,0.900654464,1110.305754,2931.385485,1.478759885,36.76269376
1.71E+12,3,0.900682483,1110.271277,2931.385517,1.551162851,38.57828335
1.71E+12,3,0.900711562,1110.235499,2931.385552,1.622742483,40.43498067
1.71E+12,3,0.900741669,1110.198462,2931.385591,1.693336207,42.33104294
1.71E+12,3,0.900772764,1110.160215,2931.385634,1.762781012,44.26456278
1.71E+12,3,0.900804803,1110.120815,2931.385684,1.830914027,46.23346907
1.71E+12,3,0.900837737,1110.080325,2931.38574,1.89757312,48.23552853
1.71E+12,3,0.900871509,1110.038817,2931.385805,1.96259749,50.26834797
1.71E+12,3,0.90090606,1109.996367,2931.385881,2.025828268,52.32937727
1.71E+12,3,0.900941323,1109.953058,2931.385976,2.087109118,54.41591307
1.71E+12,3,0.900977226,1109.908983,2931.386092,2.146286828,56.52510314
1.71E+12,3,0.901013692,1109.864241,2931.386234,2.203211902,58.65395151
1.71E+12,3,0.901050635,1109.818938,2931.386406,2.257739138,60.79932431
1.71E+12,3,0.901087967,1109.773188,2931.38661,2.309728197,62.95795621
1.71E+12,3,0.90112559,1109.727116,2931.386846,2.359044152,65.12645763
1.71E+12,3,0.901163401,1109.680851,2931.387118,2.405558028,67.30132261
1.71E+12,3,0.901201289,1109.634535,2931.387427,2.449147311,69.47893724
1.71E+12,3,0.901239136,1109.588318,2931.387774,2.48969644,71.65558877
1.71E+12,3,0.901276817,1109.542359,2931.38816,2.527097275,73.82747527
1.71E+12,3,0.901314196,1109.49683,2931.388586,2.561249535,75.99071587
1.71E+12,3,0.901351128,1109.451914,2931.389052,2.592061201,78.14136148
1.71E+12,3,0.901387461,1109.407807,2931.389555,2.619448896,80.27540599
1.71E+12,3,0.901423032,1109.364715,2931.390096,2.643338224,82.38879793
1.71E+12,3,0.901457671,1109.322855,2931.390677,2.663664077,84.47745248
1.71E+12,3,0.901491197,1109.282455,2931.391298,2.6803709,86.53726385
1.71E+12,3,0.901523423,1109.243754,2931.391961,2.693412924,88.56411791
1.71E+12,3,0.901554152,1109.207001,2931.392664,2.702754353,90.55390514
1.71E+12,3,0.90158318,1109.172459,2931.393406,2.70836951,92.50253365
1.71E+12,3,0.901610291,1109.1404,2931.394184,2.710242948,94.40594244
1.71E+12,3,0.901635262,1109.111107,2931.394995,2.70836951,96.26011465
1.71E+12,3,0.901657863,1109.084875,2931.395838,2.702754353,98.06109087
1.71E+12,3,0.901677851,1109.062011,2931.396708,2.693412924,99.80498242
1.71E+12,3,0.90169498,1109.04283,2931.397602,2.6803709,101.4879845
1.71E+12,3,0.901708992,1109.027659,2931.398514,2.663664077,103.1063891
1.71E+12,3,0.901719624,1109.016834,2931.399437,2.643338224,104.6565979
1.71E+12,3,0.901726603,1109.010701,2931.400368,2.619448896,106.1351347
1.71E+12,3,0.901729651,1109.009614,2931.401302,2.592061201,107.5386577
1.71E+12,3,0.901728485,1109.013933,2931.402235,2.561249535,108.8639712
1.71E+12,3,0.901722816,1109.024029,2931.403163,2.527097275,110.1080368
1.71E+12,3,0.901712348,1109.040273,2931.404083,2.48969644,111.2679845
1.71E+12,3,0.901696786,1109.063045,2931.404991,2.449147311,112.3411229
1.71E+12,3,0.901675827,1109.092727,2931.405884,2.405558028,113.3249488
1.71E+12,3,0.901649168,1109.129708,2931.406759,2.359044152,114.2171566
1.71E+12,3,0.9016165,1109.174377,2931.407612,2.309728197,115.015646
1.71E+12,3,0.901577516,1109.227128,2931.408443,2.257739138,115.7185307
1.71E+12,3,0.901531906,1109.288354,2931.409248,2.203211902,116.3241442
1.71E+12,3,0.901479361,1109.358449,2931.410026,2.146286828,116.8310469
1.71E+12,3,0.901419571,1109.437804,2931.410772,2.087109118,117.2380306
1.71E+12,3,0.901352232,1109.52681,2931.411483,2.025828268,117.5441235
1.71E+12,3,0.90127704,1109.625851,2931.412152,1.96259749,117.7485935
1.71E+12,3,0.901193696,1109.735308,2931.412773,1.89757312,117.8509511
1.71E+12,3,0.901101906,1109.855554,2931.413339,1.830914027,117.8509511
1.71E+12,3,0.901001384,1109.986953,2931.413845,1.762781012,117.7485935
1.71E+12,3,0.90089185,1110.129862,2931.414289,1.693336207,117.5441235
1.71E+12,3,0.900773034,1110.284623,2931.414666,1.622742483,117.2380306
1.71E+12,3,0.900644675,1110.451567,2931.414973,1.551162851,116.8310469
1.71E+12,3,0.900506523,1110.631012,2931.415208,1.478759885,116.3241442
1.71E+12,3,0.900358342,1110.823258,2931.415367,1.405695144,115.7185307
1.71E+12,3,0.900199908,1111.02859,2931.415448,1.332128613,115.015646
1.71E+12,3,0.900031011,1111.247272,2931.415452,1.258218158,114.2171566
1.71E+12,3,0.899851458,1111.479551,2931.415376,1.184119002,113.3249488
1.71E+12,3,0.89966107,1111.725652,2931.415219,1.109983218,112.3411229
1.71E+12,3,0.899459689,1111.985777,2931.414981,1.035959244,111.2679845
1.71E+12,3,0.899247173,1112.260103,2931.414659,0.962191427,110.1080368
1.71E+12,3,0.8990234,1112.548785,2931.414255,0.888819593,108.8639712
1.71E+12,3,0.898788271,1112.851949,2931.413768,0.815978639,107.5386577
1.71E+12,3,0.898541705,1113.169693,2931.413201,0.743798164,106.1351347
1.71E+12,3,0.898283646,1113.50209,2931.412556,0.672402121,104.6565979
1.71E+12,3,0.89801406,1113.84918,2931.411835,0.601908513,103.1063891
1.71E+12,3,0.897732935,1114.210976,2931.411041,0.53242911,101.4879845
1.71E+12,3,0.897440286,1114.587457,2931.410174,0.464069212,99.80498242
1.71E+12,3,0.897136152,1114.978572,2931.409237,0.396927434,98.06109087
1.71E+12,3,0.896820597,1115.384238,2931.408232,0.331095537,96.26011465
1.71E+12,3,0.896493709,1115.804337,2931.407161,0.266658286,94.40594244
1.71E+12,3,0.896155606,1116.23872,2931.406028,0.203693351,92.50253365
1.71E+12,3,0.895806429,1116.687203,2931.404834,0.142271233,90.55390514
1.71E+12,3,0.895446346,1117.149569,2931.403583,0.082455233,88.56411791
1.71E+12,3,0.895075553,1117.625567,2931.402274,0.024301449,86.53726385
1.71E+12,3,0.894694271,1118.114912,2931.400911,-0.032141189,84.47745248
1.71E+12,3,0.894302747,1118.617287,2931.399497,-0.086830855,82.38879793
1.71E+12,3,0.893901255,1119.13234,2931.398037,-0.139732735,80.27540599
1.71E+12,3,0.893490092,1119.659689,2931.396535,-0.190818898,78.14136148
1.71E+12,3,0.89306958,1120.198919,2931.394999,-0.240068146,75.99071587
1.71E+12,3,0.892640068,1120.749585,2931.393435,-0.287465829,73.82747527
1.71E+12,3,0.892201926,1121.311213,2931.391848,-0.333003648,71.65558877
1.71E+12,3,0.891755547,1121.883297,2931.390246,-0.376679421,69.47893724
1.71E+12,3,0.891301346,1122.465307,2931.388636,-0.418496835,67.30132261
1.71E+12,3,0.890839758,1123.056682,2931.387026,-0.458465179,65.12645763
1.71E+12,3,0.890371241,1123.656839,2931.385421,-0.496599056,62.95795621
1.71E+12,3,0.889896269,1124.26517,2931.383829,-0.532918083,60.79932431
1.71E+12,3,0.889415332,1124.881046,2931.382253,-0.56744658,58.65395151
1.71E+12,3,0.888928941,1125.503814,2931.380698,-0.600213238,56.52510314
1.71E+12,3,0.888437617,1126.132806,2931.379167,-0.631250792,54.41591307
1.71E+12,3,0.887941897,1126.767335,2931.377662,-0.660595678,52.32937727
1.71E+12,3,0.887442331,1127.406698,2931.376185,-0.688287691,50.26834797
1.71E+12,3,0.886939477,1128.05018,2931.374737,-0.714369637,48.23552853
1.71E+12,3,0.886433902,1128.697054,2931.37332,-0.738886986,46.23346907
1.71E+12,3,0.885926183,1129.346585,2931.371935,-0.761887531,44.26456278
1.71E+12,3,0.885416898,1129.998031,2931.370585,-0.783421047,42.33104294
1.71E+12,3,0.884906632,1130.650645,2931.369272,-0.803538954,40.43498067
1.71E+12,3,0.884395971,1131.303677,2931.367998,-0.822293995,38.57828335
1.71E+12,3,0.883885502,1131.956376,2931.366768,-0.83973992,36.76269376
1.71E+12,3,0.883375811,1132.607993,2931.365581,-0.855931176,34.98978989
1.71E+12,3,0.882867481,1133.257785,2931.364442,-0.870922619,33.26098538
1.71E+12,3,0.882361089,1133.905012,2931.36335,-0.884769237,31.57753062
1.71E+12,3,0.881857207,1134.548944,2931.362308,-0.897525881,29.94051448
1.71E+12,3,0.881356397,1135.188862,2931.361317,-0.909247026,28.35086658
1.71E+12,3,0.880859212,1135.82406,2931.360378,-0.919986538,26.80936017
1.71E+12,3,0.880366196,1136.453845,2931.359492,-0.929797466,25.31661549
1.71E+12,3,0.879877877,1137.07754,2931.358659,-0.938731849,23.87310363
1.71E+12,3,0.879394771,1137.694488,2931.35788,-0.946840546,22.4791509
1.71E+12,3,0.878917377,1138.30405,2931.357154,-0.954173084,21.13494357
1.71E+12,3,0.878446181,1138.90561,2931.356479,-0.960777525,19.84053298
1.71E+12,3,0.877981645,1139.498574,2931.355854,-0.96670036,18.59584105
1.71E+12,3,0.877524217,1140.082374,2931.355279,-0.971986409,17.40066604
1.71E+12,3,0.877074322,1140.656468,2931.354753,-0.976678759,16.25468865
1.71E+12,3,0.876632363,1141.220341,2931.354276,-0.980818709,15.15747821
1.71E+12,3,0.876198721,1141.773508,2931.353847,-0.984445737,14.10849924
1.71E+12,3,0.875773755,1142.315513,2931.353464,-0.987597485,13.10711794
1.71E+12,3,0.875357798,1142.845932,2931.353126,-0.990309769,12.15260898
1.71E+12,3,0.874951159,1143.364373,2931.35283,-0.992616592,11.24416222
1.71E+12,3,0.874554122,1143.870473,2931.352571,-0.994550188,10.38088951
1.71E+12,3,0.874166946,1144.363907,2931.352346,-0.996141067,9.561831436
1.71E+12,3,0.873789862,1144.844379,2931.352151,-0.997418087,8.785964107
1.71E+12,3,0.873423075,1145.31163,2931.351981,-0.998408523,8.052205741
1.71E+12,3,0.873066765,1145.765436,2931.351834,-0.999138166,7.359423219
1.71E+12,3,0.872721082,1146.205603,2931.351702,-0.999631412,6.706438454
1.71E+12,3,0.872386153,1146.631975,2931.35158,-0.999911376,6.092034601
1.71E+12,3,0.872062076,1147.044429,2931.351464,-1,5.51496205
1.71E+12,3,0.871748923,1147.442876,2931.351348,-1,4.973882071
1.71E+12,3,0.871446741,1147.82726,2931.351232,-1,4.467382332
1.71E+12,3,0.87115555,1148.197558,2931.35111,-1,3.994048843
1.71E+12,3,0.870875345,1148.553778,2931.350981,-1,3.552470413
1.71E+12,3,0.870606099,1148.895961,2931.350842,-1,3.141242908
1.71E+12,3,0.870347759,1149.224176,2931.350692,-1,2.75897328
1.71E+12,3,0.87010025,1149.538523,2931.350529,-1,2.404283381
1.71E+12,3,0.869863476,1149.839129,2931.350353,-1,2.075813527
1.71E+12,3,0.869637318,1150.126147,2931.350165,-1,1.772225823
1.71E+12,3,0.86942164,1150.399758,2931.349963,-1,1.492207233
1.71E+12,3,0.869216284,1150.660165,2931.349746,-1,1.234472389
1.71E+12,3,0.869021076,1150.907594,2931.349513,-1,0.997766142
1.71E+12,3,0.868835825,1151.142293,2931.349258,-1,0.780865848
1.71E+12,3,0.868660324,1151.364531,2931.348978,-1,0.582583394
1.71E+12,3,0.868494352,1151.574592,2931.348671,-1,0.401766958
1.71E+12,3,0.868337674,1151.772781,2931.348335,-1,0.237302515
1.71E+12,3,0.868190045,1151.959413,2931.34797,-1,0.08811509
1.71E+12,3,0.868051208,1152.134821,2931.347574,-1,-0.046830244
1.71E+12,3,0.867920897,1152.299347,2931.347149,-1,-0.168527594
1.71E+12,3,0.867798839,1152.453344,2931.346696,-1,-0.277929724
1.71E+12,3,0.867684752,1152.597175,2931.346214,-1,-0.375947741
1.71E+12,3,0.86757835,1152.731207,2931.345706,-1,-0.463450996
1.71E+12,3,0.867479343,1152.855814,2931.345174,-1,-0.541267186
1.71E+12,3,0.867387438,1152.971373,2931.344618,-1,-0.610182642
1.71E+12,3,0.867302338,1153.078265,2931.34404,-1,-0.670942791
1.71E+12,3,0.86722375,1153.176869,2931.343441,-1,-0.724252776
1.71E+12,3,0.86715138,1153.26756,2931.342823,-1,-0.770778222
1.71E+12,3,0.867084934,1153.350716,2931.342186,-1,-0.811146133
1.71E+12,3,0.867024123,1153.426709,2931.341534,-1,-0.845945906
1.71E+12,3,0.866968658,1153.495909,2931.340871,-1,-0.875730436
1.71E+12,3,0.866918256,1153.55868,2931.340203,-1,-0.90101732
1.71E+12,3,0.866872637,1153.615378,2931.339534,-1,-0.922290115
1.71E+12,3,0.86683153,1153.666353,2931.338868,-1,-0.93999966
1.71E+12,3,0.866794669,1153.711943,2931.338209,-1,-0.954565435
1.71E+12,3,0.866761797,1153.752479,2931.337559,-1,-0.96637694
1.71E+12,3,0.866732666,1153.788278,2931.336924,-1,-0.975795088
1.71E+12,3,0.866707036,1153.819646,2931.336307,-1,-0.983153598
1.71E+12,3,0.866684678,1153.846875,2931.335713,-1,-0.988760367
1.71E+12,3,0.866665372,1153.870246,2931.335145,-1,-0.992898813
1.71E+12,3,0.866648911,1153.890024,2931.334606,-1,-0.995829186
1.71E+12,3,0.866635099,1153.906459,2931.334099,-1,-0.997789824
1.71E+12,3,0.866623749,1153.919786,2931.333627,-1,-0.998998351
1.71E+12,3,0.866614689,1153.930225,2931.333194,-1,-0.999652805
1.71E+12,3,0.866607756,1153.937982,2931.332809,-1,-0.999932701
1.71E+12,3,0.8666028,1153.943248,2931.332476,-1,-1
1.71E+12,3,0.866599683,1153.946197,2931.332202,-1,-1
1.71E+12,3,0.866598277,1153.94699,2931.331992,-1,-1
1.71E+12,3,0.866598467,1153.945773,2931.33185,-1,-1
1.71E+12,3,0.866600148,1153.942676,2931.331778,-1,-1
1.71E+12,3,0.866603227,1153.937816,2931.33178,-1,-1
1.71E+12,3,0.866607621,1153.931297,2931.331859,-1,-1
1.71E+12,3,0.866613258,1153.923205,2931.332018,-1,-1
1.71E+12,3,0.86662008,1153.913614,2931.33226,-1,-1
1.71E+12,3,0.866628036,1153.902584,2931.332584,-1,-1
1.71E+12,3,0.866637088,1153.890161,2931.332992,-1,-1
1.71E+12,3,0.866647206,1153.87638,2931.333486,-1,-1
1.71E+12,3,0.86665837,1153.861262,2931.334069,-1,-1
1.71E+12,3,0.866670569,1153.844818,2931.334745,-1,-1
1.71E+12,3,0.866683799,1153.827049,2931.335516,-1,-1
1.71E+12,3,0.866698064,1153.807947,2931.336384,-1,-1
1.71E+12,3,0.866713375,1153.787492,2931.337352,-1,-1
1.71E+12,3,0.86672975,1153.765659,2931.338417,-1,-1
1.71E+12,3,0.866747212,1153.742413,2931.33958,-1,-1
1.71E+12,3,0.866765791,1153.717714,2931.34084,-1,-1
1.71E+12,3,0.866785521,1153.691512,2931.342198,-1,-1
1.71E+12,3,0.866806442,1153.663754,2931.343651,-1,-1
1.71E+12,3,0.866828596,1153.63438,2931.345198,-1,-1
1.71E+12,3,0.866852032,1153.603326,2931.346836,-1,-1
1.71E+12,3,0.8668768,1153.570523,2931.34856,-1,-1
1.71E+12,3,0.866902954,1153.535899,2931.350367,-1,-1
1.71E+12,3,0.866930553,1153.499374,2931.352257,-1,-1
1.71E+12,3,0.866959664,1153.46086,2931.354227,-1,-1
1.71E+12,3,0.866990365,1153.420253,2931.356275,-1,-1
1.71E+12,3,0.867022737,1153.377448,2931.358399,-1,-1
1.71E+12,3,0.867056862,1153.332336,2931.360598,-1,-1
1.71E+12,3,0.867092823,1153.284807,2931.36287,-1,-1
1.71E+12,3,0.867130702,1153.234757,2931.36521,-1,-1
1.71E+12,3,0.867170576,1153.18208,2931.367615,-1,-1
1.71E+12,3,0.867212523,1153.126676,2931.370079,-1,-1
1.71E+12,3,0.867256618,1153.068447,2931.372598,-1,-1
1.71E+12,3,0.867302933,1153.007297,2931.375166,-1,-1
1.71E+12,3,0.867351538,1152.943136,2931.37778,-1,-1
1.71E+12,3,0.8674025,1152.875876,2931.380433,-1,-1
1.71E+12,3,0.867455884,1152.805431,2931.383121,-1,-1
1.71E+12,3,0.867511752,1152.731722,2931.385838,-1,-1
1.71E+12,3,0.867570163,1152.654672,2931.388581,-1,-1
1.71E+12,3,0.867631171,1152.574209,2931.391343,-1,-1
1.71E+12,3,0.867694831,1152.490264,2931.394119,-1,-1
1.71E+12,3,0.867761191,1152.402773,2931.396901,-1,-1
1.71E+12,3,0.867830299,1152.311675,2931.399683,-1,-1
1.71E+12,3,0.867902199,1152.216913,2931.402458,-1,-1
1.71E+12,3,0.867976931,1152.118435,2931.405224,-1,-1
1.71E+12,3,0.868054533,1152.016192,2931.407977,-1,-1
1.71E+12,3,0.868135038,1151.910143,2931.410714,-1,-1
1.71E+12,3,0.868218478,1151.800248,2931.413432,-1,-1
1.71E+12,3,0.868304876,1151.686474,2931.416125,-1,-1
1.71E+12,3,0.868394257,1151.568795,2931.418788,-1,-1
1.71E+12,3,0.868486636,1151.447188,2931.421417,-1,-1
1.71E+12,3,0.868582028,1151.321638,2931.42401,-1,-1
1.71E+12,3,0.868680441,1151.192134,2931.426562,-1,-1
1.71E+12,3,0.868781881,1151.058671,2931.42907,-1,-1
1.71E+12,3,0.868886346,1150.921251,2931.431529,-1,-1
1.71E+12,3,0.868993833,1150.779882,2931.433936,-1,-1
1.71E+12,3,0.869104331,1150.634577,2931.436287,-1,-1
1.71E+12,3,0.869217826,1150.485358,2931.438582,-1,-1
1.71E+12,3,0.869334299,1150.33225,2931.440817,-1,-1
1.71E+12,3,0.869453726,1150.175289,2931.442993,-1,-1
1.71E+12,3,0.869576075,1150.014513,2931.445107,-1,-1
1.71E+12,3,0.869701313,1149.849972,2931.447156,-1,-1
1.71E+12,3,0.869829397,1149.681719,2931.449138,-1,-1
1.71E+12,3,0.869960281,1149.509819,2931.451053,-1,-1
1.71E+12,3,0.870093912,1149.334343,2931.452898,-1,-1
1.71E+12,3,0.870230232,1149.155366,2931.454673,-1,-1
1.71E+12,3,0.870369179,1148.972973,2931.456378,-1,-1
1.71E+12,3,0.870510684,1148.787253,2931.458011,-1,-1
1.71E+12,3,0.870654675,1148.598303,2931.459572,-1,-1
1.71E+12,3,0.870801075,1148.406225,2931.461059,-1,-1
1.71E+12,3,0.8709498,1148.211128,2931.462468,-1,-1
1.71E+12,3,0.871100765,1148.013128,2931.463801,-1,-1
1.71E+12,3,0.871253875,1147.812346,2931.465058,-1,-1
1.71E+12,3,0.871409035,1147.608911,2931.466241,-1,-1
1.71E+12,3,0.87156614,1147.402957,2931.467355,-1,-1
1.71E+12,3,0.871725084,1147.194626,2931.468399,-1,-1
1.71E+12,3,0.871885755,1146.984065,2931.469374,-1,-1
1.71E+12,3,0.872048035,1146.771428,2931.470282,-1,-1
1.71E+12,3,0.872211803,1146.556874,2931.471123,-1,-1
1.71E+12,3,0.872376933,1146.340568,2931.471897,-1,-1
1.71E+12,3,0.872543293,1146.122682,2931.472607,-1,-1
1.71E+12,3,0.87271075,1145.903391,2931.473252,-1,-1
1.71E+12,3,0.872879166,1145.682877,2931.47383,-1,-1
1.71E+12,3,0.873048396,1145.461325,2931.474343,-1,-1
1.71E+12,3,0.873218297,1145.238926,2931.474789,-1,-1
1.71E+12,3,0.873388718,1145.015875,2931.475171,-1,-1
1.71E+12,3,0.873559506,1144.792371,2931.475493,-1,-1
1.71E+12,3,0.873730508,1144.568617,2931.475757,-1,-1
1.71E+12,3,0.873901563,1144.344819,2931.475966,-1,-1
1.71E+12,3,0.874072512,1144.121186,2931.476124,-1,-1
1.71E+12,3,0.874243191,1143.897931,2931.476231,-1,-1
1.71E+12,3,0.874413437,1143.675268,2931.476286,-1,-1
1.71E+12,3,0.874583082,1143.453413,2931.47629,-1,-1
1.71E+12,3,0.874751959,1143.232585,2931.47624,-1,-1
1.71E+12,3,0.874919899,1143.013003,2931.476135,-1,-1
1.71E+12,3,0.875086731,1142.794888,2931.475973,-1,-1
1.71E+12,3,0.875252287,1142.578462,2931.475754,-1,-1
1.71E+12,3,0.875416396,1142.363945,2931.475479,-1,-1
1.71E+12,3,0.875578887,1142.15156,2931.475147,-1,-1
1.71E+12,3,0.87573959,1141.941526,2931.474762,-1,-1
1.71E+12,3,0.875898336,1141.734063,2931.474325,-1,-1
1.71E+12,3,0.876054958,1141.52939,2931.473838,-1,-1
1.71E+12,3,0.87620929,1141.327721,2931.473302,-1,-1
1.71E+12,3,0.876361166,1141.12927,2931.472718,-1,-1
1.71E+12,3,0.876510426,1140.934247,2931.472083,-1,-1
1.71E+12,3,0.876656909,1140.742859,2931.471395,-1,-1
1.71E+12,3,0.876800459,1140.555309,2931.470652,-1,-1
1.71E+12,3,0.876940924,1140.371794,2931.469848,-1,-1
1.71E+12,3,0.877078153,1140.19251,2931.468981,-1,-1
1.71E+12,3,0.877212001,1140.017645,2931.468048,-1,-1
1.71E+12,3,0.877342325,1139.847384,2931.467047,-1,-1
1.71E+12,3,0.877468988,1139.681904,2931.465975,-1,-1
1.71E+12,3,0.877591857,1139.521377,2931.464832,-1,-1
1.71E+12,3,0.877710805,1139.365969,2931.463617,-1,-1
1.71E+12,3,0.877825709,1139.21584,2931.462329,-1,-1
1.71E+12,3,0.877936451,1139.07114,2931.460969,-1,-1
1.71E+12,3,0.878042919,1138.932015,2931.459536,-1,-1
1.71E+12,3,0.878145008,1138.798602,2931.458031,-1,-1
1.71E+12,3,0.878242617,1138.67103,2931.456455,-1,-1
1.71E+12,3,0.878335654,1138.549421,2931.454809,-1,-1
1.71E+12,3,0.87842403,1138.433887,2931.453094,-1,-1
1.71E+12,3,0.878507665,1138.324533,2931.451308,-1,-1
1.71E+12,3,0.878586485,1138.221455,2931.44945,-1,-1
1.71E+12,3,0.878660424,1138.124738,2931.447517,-1,-1
1.71E+12,3,0.87872942,1138.034461,2931.445504,-1,-1
1.71E+12,3,0.878793421,1137.950693,2931.443408,-1,-1
1.71E+12,3,0.87885238,1137.873494,2931.441229,-1,-1
1.71E+12,3,0.878906258,1137.802915,2931.438966,-1,-1
1.71E+12,3,0.878955022,1137.738998,2931.436618,-1,-1
1.71E+12,3,0.878998647,1137.681776,2931.434185,-1,-1
1.71E+12,3,0.879037114,1137.631272,2931.431668,-1,-1
1.71E+12,3,0.879070413,1137.587501,2931.429066,-1,-1
1.71E+12,3,0.879098539,1137.550468,2931.426381,-1,-1
1.71E+12,3,0.879121493,1137.520172,2931.423615,-1,-1
1.71E+12,3,0.879139286,1137.496599,2931.42077,-1,-1
1.71E+12,3,0.879151931,1137.479732,2931.417851,-1,-1
1.71E+12,3,0.879159452,1137.469541,2931.41486,-1,-1
1.71E+12,3,0.879161875,1137.465991,2931.411799,-1,-1
1.71E+12,3,0.879159237,1137.469034,2931.408672,-1,-1
1.71E+12,3,0.879151579,1137.478617,2931.405478,-1,-1
1.71E+12,3,0.879138951,1137.494678,2931.402218,-1,-1
1.71E+12,3,0.879121405,1137.517145,2931.398893,-1,-1
1.71E+12,3,0.879099003,1137.545941,2931.395506,-1,-1
1.71E+12,3,0.87907181,1137.580982,2931.392062,-1,-1
1.71E+12,3,0.879039897,1137.622175,2931.388564,-1,-1
1.71E+12,3,0.87900334,1137.669423,2931.385017,-1,-1
1.71E+12,3,0.878962219,1137.72262,2931.381427,-1,-1
1.71E+12,3,0.87891662,1137.781656,2931.377798,-1,-1
1.71E+12,3,0.878866634,1137.846415,2931.374135,-1,-1
1.71E+12,3,0.878812354,1137.916774,2931.370447,-1,-1
1.71E+12,3,0.87875388,1137.992605,2931.36674,-1,-1
1.71E+12,3,0.878691313,1138.073777,2931.36302,-1,-1
1.71E+12,3,0.87862476,1138.160151,2931.359295,-1,-1
1.71E+12,3,0.878554331,1138.251584,2931.355567,-1,-1
1.71E+12,3,0.878480141,1138.34793,2931.351841,-1,-1
1.71E+12,3,0.878402304,1138.449038,2931.34812,-1,-1
1.71E+12,3,0.878320942,1138.554752,2931.344412,-1,-1
1.71E+12,3,0.878236176,1138.664914,2931.340723,-1,-1
1.71E+12,3,0.878148132,1138.779362,2931.337061,-1,-1
1.71E+12,3,0.878056936,1138.897931,2931.333432,-1,-1
1.71E+12,3,0.877962719,1139.020453,2931.329844,-1,-1
1.71E+12,3,0.877865611,1139.146758,2931.326305,-1,-1
1.71E+12,3,0.877765745,1139.276674,2931.322822,-1,-1
1.71E+12,3,0.877663257,1139.410025,2931.319404,-1,-1
1.71E+12,3,0.877558284,1139.546632,2931.316059,-1,-1
1.71E+12,3,0.877450966,1139.686315,2931.312795,-1,-1
1.71E+12,3,0.877341441,1139.828892,2931.309617,-1,-1
1.71E+12,3,0.877229853,1139.97418,2931.306531,-1,-1
1.71E+12,3,0.877116343,1140.121992,2931.303542,-1,-1
1.71E+12,3,0.877001056,1140.272141,2931.300653,-1,-1
1.71E+12,3,0.876884137,1140.424438,2931.29787,-1,-1
1.71E+12,3,0.876765732,1140.578694,2931.295199,-1,-1
1.71E+12,3,0.876645988,1140.734718,2931.292646,-1,-1
1.71E+12,3,0.876525054,1140.892315,2931.290215,-1,-1
1.71E+12,3,0.876403077,1141.051293,2931.287912,-1,-1
1.71E+12,3,0.876280208,1141.211457,2931.285741,-1,-1
1.71E+12,3,0.876156596,1141.37261,2931.283708,-1,-1
1.71E+12,3,0.876032394,1141.534556,2931.281818,-1,-1
1.71E+12,3,0.875907751,1141.697099,2931.280076,-1,-1
1.71E+12,3,0.875782819,1141.860041,2931.278487,-1,-1
1.71E+12,3,0.875657748,1142.023184,2931.277057,-1,-1
1.71E+12,3,0.875532693,1142.186329,2931.27579,-1,-1
1.71E+12,3,0.875407808,1142.349273,2931.274686,-1,-1
1.71E+12,3,0.875283247,1142.511815,2931.273746,-1,-1
1.71E+12,3,0.875159167,1142.67375,2931.272967,-1,-1
1.71E+12,3,0.875035721,1142.834877,2931.272347,-1,-1
1.71E+12,3,0.874913066,1142.994991,2931.271883,-1,-1
1.71E+12,3,0.874791357,1143.15389,2931.271574,-1,-1
1.71E+12,3,0.874670748,1143.311372,2931.271416,-1,-1
1.71E+12,3,0.874551394,1143.467234,2931.271406,-1,-1
1.71E+12,3,0.874433448,1143.621276,2931.271544,-1,-1
1.71E+12,3,0.874317063,1143.773296,2931.271827,-1,-1
1.71E+12,3,0.874202392,1143.923096,2931.272253,-1,-1
1.71E+12,3,0.874089584,1144.070479,2931.272822,-1,-1
1.71E+12,3,0.87397879,1144.215247,2931.273528,-1,-1
1.71E+12,3,0.873870159,1144.357205,2931.274369,-1,-1
1.71E+12,3,0.87376384,1144.49616,2931.275337,-1,-1
1.71E+12,3,0.873659979,1144.631917,2931.276426,-1,-1
1.71E+12,3,0.873558724,1144.764284,2931.277628,-1,-1
1.71E+12,3,0.873460218,1144.893073,2931.278934,-1,-1
1.71E+12,3,0.873364606,1145.018094,2931.280336,-1,-1
1.71E+12,3,0.87327203,1145.139161,2931.281825,-1,-1
1.71E+12,3,0.873182629,1145.256092,2931.283395,-1,-1
1.71E+12,3,0.873096541,1145.368705,2931.285038,-1,-1
1.71E+12,3,0.873013901,1145.476822,2931.286746,-1,-1
1.71E+12,3,0.872934842,1145.580272,2931.288513,-1,-1
1.71E+12,3,0.872859493,1145.678884,2931.290331,-1,-1
1.71E+12,3,0.87278798,1145.772491,2931.292194,-1,-1
1.71E+12,3,0.872720429,1145.860933,2931.294092,-1,-1
1.71E+12,3,0.872656958,1145.94405,2931.296013,-1,-1
1.71E+12,3,0.872597687,1146.021688,2931.297946,-1,-1
1.71E+12,3,0.872542731,1146.093696,2931.299881,-1,-1
1.71E+12,3,0.872492201,1146.159928,2931.301806,-1,-1
1.71E+12,3,0.872446206,1146.220242,2931.303714,-1,-1
1.71E+12,3,0.872404852,1146.2745,2931.305596,-1,-1
1.71E+12,3,0.87236824,1146.322569,2931.307442,-1,-1
1.71E+12,3,0.872336467,1146.364323,2931.309246,-1,-1
1.71E+12,3,0.872309627,1146.399641,2931.310998,-1,-1
1.71E+12,3,0.872287807,1146.428406,2931.312692,-1,-1
1.71E+12,3,0.872271094,1146.45051,2931.314321,-1,-1
1.71E+12,3,0.872259566,1146.465847,2931.31588,-1,-1
1.71E+12,3,0.8722533,1146.47432,2931.317364,-1,-1
1.71E+12,3,0.872252365,1146.475838,2931.318768,-1,-1
1.71E+12,3,0.872256827,1146.470317,2931.320085,-1,-1
1.71E+12,3,0.872266747,1146.457678,2931.321308,-1,-1
1.71E+12,3,0.872282179,1146.437851,2931.32243,-1,-1
1.71E+12,3,0.872303174,1146.410772,2931.323443,-1,-1
1.71E+12,3,0.872329777,1146.376383,2931.324343,-1,-1
1.71E+12,3,0.872362028,1146.334635,2931.325125,-1,-1
1.71E+12,3,0.872399959,1146.285484,2931.325788,-1,-1
1.71E+12,3,0.8724436,1146.228897,2931.326331,-1,-1
1.71E+12,3,0.872492974,1146.164845,2931.326753,-1,-1
1.71E+12,3,0.872548096,1146.093308,2931.32705,-1,-1
1.71E+12,3,0.87260898,1146.014273,2931.327223,-1,-1
1.71E+12,3,0.87267563,1145.927735,2931.32727,-1,-1
1.71E+12,3,0.872748046,1145.833697,2931.327193,-1,-1
1.71E+12,3,0.872826224,1145.732169,2931.326992,-1,-1
1.71E+12,3,0.872910151,1145.623168,2931.32667,-1,-1
1.71E+12,3,0.872999812,1145.506718,2931.326227,-1,-1
1.71E+12,3,0.873095183,1145.382853,2931.325666,-1,-1
1.71E+12,3,0.873196236,1145.25161,2931.32499,-1,-1
1.71E+12,3,0.873302939,1145.113038,2931.324203,-1,-1
1.71E+12,3,0.873415253,1144.96719,2931.323309,-1,-1
1.71E+12,3,0.873533134,1144.814126,2931.322314,-1,-1
1.71E+12,3,0.873656532,1144.653914,2931.321224,-1,-1
1.71E+12,3,0.873785393,1144.486628,2931.320044,-1,-1
1.71E+12,3,0.873919657,1144.312351,2931.31878,-1,-1
1.71E+12,3,0.874059261,1144.131168,2931.317439,-1,-1
1.71E+12,3,0.874204135,1143.943175,2931.316027,-1,-1
1.71E+12,3,0.874354206,1143.74847,2931.314554,-1,-1
1.71E+12,3,0.874509395,1143.54716,2931.313026,-1,-1
1.71E+12,3,0.874669619,1143.339355,2931.311452,-1,-1
1.71E+12,3,0.874834792,1143.125174,2931.309838,-1,-1
1.71E+12,3,0.875004824,1142.904737,2931.308193,-1,-1
1.71E+12,3,0.875179619,1142.678172,2931.306525,-1,-1
1.71E+12,3,0.875359079,1142.44561,2931.30484,-1,-1
1.71E+12,3,0.875543104,1142.207188,2931.303149,-1,-1
1.71E+12,3,0.875731587,1141.963046,2931.301457,-1,-1
1.71E+12,3,0.87592442,1141.71333,2931.299774,-1,-1
1.71E+12,3,0.876121493,1141.458187,2931.298106,-1,-1
1.71E+12,3,0.876322691,1141.197769,2931.296462,-1,-1
1.71E+12,3,0.876527898,1140.932232,2931.294849,-1,-1
1.71E+12,3,0.876736995,1140.661735,2931.293276,-1,-1
1.71E+12,3,0.87694986,1140.386439,2931.291749,-1,-1
1.71E+12,3,0.877166369,1140.106508,2931.290278,-1,-1
1.71E+12,3,0.877386397,1139.82211,2931.288869,-1,-1
1.71E+12,3,0.877609816,1139.533414,2931.287529,-1,-1
1.71E+12,3,0.877836497,1139.24059,2931.286267,-1,-1
1.71E+12,3,0.87806631,1138.943811,2931.28509,-1,-1
1.71E+12,3,0.878299122,1138.643251,2931.284005,-1,-1
1.71E+12,3,0.878534802,1138.339087,2931.283017,-1,-1
1.71E+12,3,0.878773214,1138.031494,2931.282132,-1,-1
1.71E+12,3,0.879014223,1137.720652,2931.28135,-1,-1
1.71E+12,3,0.879257695,1137.406738,2931.280673,-1,-1
1.71E+12,3,0.879503492,1137.089931,2931.280105,-1,-1
1.71E+12,3,0.87975148,1136.77041,2931.279649,-1,-1
1.71E+12,3,0.88000152,1136.448355,2931.279308,-1,-1
1.71E+12,3,0.880253477,1136.123944,2931.279082,-1,-1
1.71E+12,3,0.880507214,1135.797357,2931.278976,-1,-1
1.71E+12,3,0.880762595,1135.468771,2931.278989,-1,-1
1.71E+12,3,0.881019482,1135.138366,2931.279124,-1,-1
1.71E+12,3,0.881277741,1134.806318,2931.279384,-1,-1
1.71E+12,3,0.881537234,1134.472804,2931.279769,-1,-1
1.71E+12,3,0.881797828,1134.137999,2931.28028,-1,-1
1.71E+12,3,0.882059388,1133.802079,2931.280917,-1,-1
1.71E+12,3,0.882321781,1133.465216,2931.281676,-1,-1
1.71E+12,3,0.882584875,1133.127582,2931.282551,-1,-1
1.71E+12,3,0.882848538,1132.789345,2931.283537,-1,-1
1.71E+12,3,0.88311264,1132.450676,2931.284629,-1,-1
1.71E+12,3,0.883377052,1132.11174,2931.285822,-1,-1
1.71E+12,3,0.883641646,1131.772702,2931.287112,-1,-1
1.71E+12,3,0.883906295,1131.433725,2931.288494,-1,-1
1.71E+12,3,0.884170874,1131.094971,2931.289966,-1,-1
1.71E+12,3,0.884435259,1130.756597,2931.291523,-1,-1
1.71E+12,3,0.884699328,1130.418763,2931.293163,-1,-1
1.71E+12,3,0.884962959,1130.081621,2931.294882,-1,-1
1.71E+12,3,0.885226032,1129.745326,2931.296673,-1,-1
1.71E+12,3,0.88548843,1129.410027,2931.298529,-1,-1
1.71E+12,3,0.885750037,1129.075872,2931.300443,-1,-1
1.71E+12,3,0.886010737,1128.743008,2931.302406,-1,-1
1.71E+12,3,0.886270418,1128.411576,2931.30441,-1,-1
1.71E+12,3,0.886528969,1128.081718,2931.306444,-1,-1
1.71E+12,3,0.88678628,1127.753573,2931.308502,-1,-1
1.71E+12,3,0.887042243,1127.427277,2931.310578,-1,-1
1.71E+12,3,0.887296751,1127.102964,2931.312665,-1,-1
1.71E+12,3,0.887549699,1126.780766,2931.314758,-1,-1
1.71E+12,3,0.887800985,1126.460813,2931.316852,-1,-1
1.71E+12,3,0.888050505,1126.143231,2931.318942,-1,-1
1.71E+12,3,0.888298162,1125.828146,2931.321025,-1,-1
1.71E+12,3,0.888543856,1125.51568,2931.323093,-1,-1
1.71E+12,3,0.88878749,1125.205953,2931.325143,-1,-1
1.71E+12,3,0.889028971,1124.899084,2931.327164,-1,-1
1.71E+12,3,0.889268204,1124.595187,2931.32915,-1,-1
1.71E+12,3,0.889505099,1124.294375,2931.331092,-1,-1
1.71E+12,3,0.889739566,1123.996761,2931.332983,-1,-1
1.71E+12,3,0.889971515,1123.702452,2931.334817,-1,-1
1.71E+12,3,0.890200861,1123.411556,2931.33659,-1,-1
1.71E+12,3,0.890427519,1123.124176,2931.338298,-1,-1
1.71E+12,3,0.890651405,1122.840415,2931.339936,-1,-1
1.71E+12,3,0.890872439,1122.560372,2931.3415,-1,-1
1.71E+12,3,0.891090539,1122.284144,2931.342987,-1,-1
1.71E+12,3,0.891305628,1122.011828,2931.344395,-0.999877033,-0.999951457
1.71E+12,3,0.891517629,1121.743515,2931.345724,-0.99948858,-0.999749566
1.71E+12,3,0.891726468,1121.479298,2931.346972,-0.998804196,-0.999277504
1.71E+12,3,0.89193207,1121.219266,2931.348138,-0.997791808,-0.998405786
1.71E+12,3,0.892134364,1120.963504,2931.349218,-0.996417567,-0.996991566
1.71E+12,3,0.892333279,1120.712099,2931.350211,-0.994645688,-0.994877869
1.71E+12,3,0.892528746,1120.465132,2931.351113,-0.992438325,-0.991892781
1.71E+12,3,0.892720699,1120.222686,2931.351927,-0.98975544,-0.987848583
1.71E+12,3,0.892909072,1119.984838,2931.352651,-0.986554697,-0.982540843
1.71E+12,3,0.893093798,1119.751667,2931.353286,-0.982791373,-0.975747472
1.71E+12,3,0.893274817,1119.523247,2931.353835,-0.978418287,-0.967227759
1.71E+12,3,0.893452066,1119.299652,2931.354297,-0.973385747,-0.956721372
1.71E+12,3,0.893625485,1119.080954,2931.354675,-0.967641521,-0.943947364
1.71E+12,3,0.893795015,1118.867223,2931.35497,-0.961130832,-0.928603162
1.71E+12,3,0.8939606,1118.658525,2931.355182,-0.95379638,-0.910363571
1.71E+12,3,0.894122185,1118.454926,2931.355313,-0.945578382,-0.8888798
1.71E+12,3,0.894279714,1118.256491,2931.355366,-0.936414646,-0.863778502
1.71E+12,3,0.894433135,1118.063284,2931.355346,-0.926240668,-0.83466087
1.71E+12,3,0.894582395,1117.875365,2931.355258,-0.914989761,-0.801101769
1.71E+12,3,0.894727442,1117.692797,2931.35511,-0.902593206,-0.762648937
1.71E+12,3,0.894868229,1117.515636,2931.354904,-0.888980435,-0.718822254
1.71E+12,3,0.895004706,1117.343939,2931.354646,-0.874079243,-0.669113096
1.71E+12,3,0.895136828,1117.17776,2931.354339,-0.857816025,-0.612983782
1.71E+12,3,0.89526455,1117.017153,2931.353988,-0.84011604,-0.549867127
1.71E+12,3,0.89538783,1116.862165,2931.353596,-0.820903705,-0.479166106
1.71E+12,3,0.895506626,1116.712847,2931.353168,-0.800102911,-0.400253652
1.71E+12,3,0.895620901,1116.569241,2931.352705,-0.777637365,-0.312472577
1.71E+12,3,0.895730616,1116.431393,2931.352214,-0.753430951,-0.215135648
1.71E+12,3,0.895835737,1116.299342,2931.3517,-0.727408123,-0.107525806
1.71E+12,3,0.895936231,1116.173127,2931.35117,-0.699494305,0.011103445
1.71E+12,3,0.896032067,1116.052783,2931.35063,-0.669616313,0.141527493
1.71E+12,3,0.896123217,1115.938344,2931.350088,-0.637702802,0.284549892
1.71E+12,3,0.896209652,1115.829841,2931.349553,-0.603684709,0.441001457
1.71E+12,3,0.896291348,1115.727302,2931.349031,-0.56749572,0.611739182
1.71E+12,3,0.896368284,1115.630752,2931.348531,-0.529072745,0.797644968
1.71E+12,3,0.896440438,1115.540214,2931.348056,-0.488356391,0.999624163
1.71E+12,3,0.896507793,1115.455708,2931.347611,-0.445291441,1.218603909
1.71E+12,3,0.896570334,1115.377251,2931.347198,-0.39982734,1.45553131
1.71E+12,3,0.896628048,1115.304856,2931.346821,-0.351918669,1.711371396
1.71E+12,3,0.896680926,1115.238532,2931.346483,-0.301525616,1.987104916
1.71E+12,3,0.89672896,1115.178287,2931.346188,-0.24861444,2.283725937
1.71E+12,3,0.896772147,1115.124124,2931.345943,-0.19315792,2.602239274
1.71E+12,3,0.896810486,1115.076042,2931.34575,-0.135135795,2.943657738
1.71E+12,3,0.896843977,1115.034039,2931.345615,-0.074535177,3.30899923
1.71E+12,3,0.896872625,1114.998108,2931.345545,-0.011350949,3.699283668
1.71E+12,3,0.896896437,1114.968237,2931.345544,0.054413862,4.115529779
1.71E+12,3,0.896915426,1114.94441,2931.34562,0.122747737,4.558751739
1.71E+12,3,0.896929605,1114.92661,2931.345774,0.193630354,5.029955704
1.71E+12,3,0.896938992,1114.914812,2931.346008,0.267032299,5.530136217
1.71E+12,3,0.896943607,1114.90899,2931.346322,0.342914817,6.060272523
1.71E+12,3,0.896943476,1114.909111,2931.346717,0.421345209,6.621327874
1.71E+12,3,0.896938625,1114.915142,2931.347193,0.502399433,7.214246183
1.71E+12,3,0.896929087,1114.927041,2931.347751,0.586038222,7.839945323
1.71E+12,3,0.896914895,1114.944766,2931.348393,0.67221389,8.499313243
1.71E+12,3,0.89689609,1114.968266,2931.349119,0.760870433,9.193204066
1.71E+12,3,0.896872711,1114.997489,2931.34993,0.851943668,9.922434195
1.71E+12,3,0.896844807,1115.032377,2931.350826,0.945361414,10.68777844
1.71E+12,3,0.896812425,1115.072868,2931.351807,1.041043698,11.48996618
1.71E+12,3,0.896775619,1115.118897,2931.352871,1.138903002,12.32967759
1.71E+12,3,0.896734445,1115.170392,2931.354018,1.238844543,13.20753996
1.71E+12,3,0.896688964,1115.227278,2931.355244,1.340766576,14.12412407
1.71E+12,3,0.896639237,1115.289477,2931.356546,1.444560735,15.07994074
1.71E+12,3,0.896585334,1115.356905,2931.357922,1.550112397,16.07543744
1.71E+12,3,0.896527323,1115.429473,2931.359372,1.657301071,17.11099514
1.71E+12,3,0.896465279,1115.507091,2931.360893,1.766000811,18.18692525
1.71E+12,3,0.896399278,1115.589663,2931.362486,1.876080651,19.30346678
1.71E+12,3,0.8963294,1115.677089,2931.364148,1.987405051,20.46078371
1.71E+12,3,0.896255729,1115.769265,2931.365876,2.09983437,21.65896258
1.71E+12,3,0.89617835,1115.866084,2931.367666,2.213225345,22.89801029
1.71E+12,3,0.896097354,1115.967435,2931.369513,2.327431581,24.17785216
1.71E+12,3,0.896012832,1116.073203,2931.371412,2.442304048,25.49833025
1.71E+12,3,0.89592488,1116.18327,2931.373355,2.557691588,26.85920198
1.71E+12,3,0.895833594,1116.297516,2931.375336,2.673441422,28.26013894
1.71E+12,3,0.895739074,1116.415817,2931.377346,2.789399651,29.70072615
1.71E+12,3,0.895641422,1116.538045,2931.379378,2.905411763,31.18046144
1.71E+12,3,0.895540744,1116.66407,2931.381427,3.021323132,32.69875526
1.71E+12,3,0.895437144,1116.79376,2931.383488,3.136979501,34.25493078
1.71E+12,3,0.895330732,1116.926982,2931.385557,3.252227467,35.84822424
1.71E+12,3,0.895221617,1117.063598,2931.387629,3.366914945,37.47778572
1.71E+12,3,0.895109911,1117.203469,2931.3897,3.480891617,39.14268012
1.71E+12,3,0.894995727,1117.346455,2931.391764,3.594009363,40.84188857
1.71E+12,3,0.894879179,1117.492414,2931.393814,3.706122681,42.57431005
1.71E+12,3,0.894760382,1117.641203,2931.395844,3.817089071,44.33876338
1.71E+12,3,0.894639453,1117.792676,2931.397846,3.926769409,46.13398952
1.71E+12,3,0.894516508,1117.946691,2931.399815,4.035028286,47.95865413
1.71E+12,3,0.894391663,1118.103101,2931.401743,4.141734332,49.81135045
1.71E+12,3,0.894265035,1118.261761,2931.403621,4.246760501,51.69060247
1.71E+12,3,0.894136741,1118.422527,2931.405445,4.349984333,53.59486833
1.71E+12,3,0.894006897,1118.585253,2931.407208,4.451288189,55.52254401
1.71E+12,3,0.893875618,1118.749797,2931.408908,4.550559453,57.47196725
1.71E+12,3,0.893743019,1118.916015,2931.41054,4.647690704,59.44142172
1.71E+12,3,0.893609214,1119.083766,2931.4121,4.742579856,61.42914135
1.71E+12,3,0.893474314,1119.252911,2931.413581,4.835130273,63.43331494
1.71E+12,3,0.89333843,1119.423312,2931.414978,4.925250846,65.45209082
1.71E+12,3,0.893201671,1119.594833,2931.416288,5.012856047,67.48358181
1.71E+12,3,0.893064145,1119.767341,2931.417504,5.097865947,69.52587023
1.71E+12,3,0.892925957,1119.940704,2931.418622,5.180206212,71.57701304
1.71E+12,3,0.892787209,1120.114796,2931.419636,5.259808067,73.63504706
1.71E+12,3,0.892648001,1120.289491,2931.42054,5.336608233,75.69799434
1.71E+12,3,0.892508431,1120.464669,2931.421332,5.410548841,77.76386748
1.71E+12,3,0.892368593,1120.640211,2931.422008,5.481577322,79.83067506
1.71E+12,3,0.892228578,1120.816004,2931.422566,5.549769236,81.89642394
1.71E+12,3,0.892088475,1120.991938,2931.423005,5.61522471,83.95912418
1.71E+12,3,0.891948368,1121.167908,2931.423324,5.677936635,86.0167972
1.71E+12,3,0.891808337,1121.343814,2931.423525,5.737904177,88.067481
1.71E+12,3,0.891668461,1121.519559,2931.423606,5.795132726,90.10923539
1.71E+12,3,0.891528811,1121.695053,2931.423569,5.849633828,92.14014699
1.71E+12,3,0.891389457,1121.87021,2931.423411,5.901425097,94.1583342
1.71E+12,3,0.891250464,1122.044949,2931.42313,5.950530095,96.16195197
1.71E+12,3,0.891111891,1122.219195,2931.422724,5.996978203,98.14919644
1.71E+12,3,0.890973796,1122.392878,2931.422193,6.040804461,100.1183094
1.71E+12,3,0.890836231,1122.565933,2931.421537,6.08204939,102.0675824
1.71E+12,3,0.890699242,1122.738301,2931.420758,6.120758799,103.9953611
1.71E+12,3,0.890562873,1122.90993,2931.419858,6.156983564,105.9000486
1.71E+12,3,0.890427163,1123.08077,2931.41884,6.190779393,107.7801094
1.71E+12,3,0.890292146,1123.250781,2931.417705,6.222206574,109.6340724
1.71E+12,3,0.890157849,1123.419926,2931.416457,6.251329703,111.4605341
1.71E+12,3,0.8900243,1123.588174,2931.415101,6.278217397,113.2581614
1.71E+12,3,0.889891517,1123.755501,2931.413642,6.302941994,115.0256939
1.71E+12,3,0.889759516,1123.921888,2931.412086,6.325579234,116.7619459
1.71E+12,3,0.889628309,1124.087321,2931.410436,6.346207937,118.465809
1.71E+12,3,0.889497903,1124.251791,2931.408695,6.364909656,120.1362526
1.71E+12,3,0.889368299,1124.415297,2931.406866,6.381768332,121.7723263
1.71E+12,3,0.889239498,1124.577841,2931.404951,6.396869932,123.37316
1.71E+12,3,0.889111493,1124.73943,2931.402956,6.410302089,124.9379648
1.71E+12,3,0.888984274,1124.900077,2931.400884,6.422153721,126.4660339
1.71E+12,3,0.888857827,1125.0598,2931.398741,6.432514661,127.9567418
1.71E+12,3,0.888732135,1125.218623,2931.396532,6.441475277,129.4095446
1.71E+12,3,0.888607177,1125.376572,2931.394263,6.449126087,130.8239795
1.71E+12,3,0.888482928,1125.533678,2931.39194,6.45555738,132.1996639
1.71E+12,3,0.888359362,1125.689976,2931.38957,6.460858838,133.5362943
1.71E+12,3,0.88823645,1125.845502,2931.387161,6.465119154,134.8336452
1.71E+12,3,0.888114161,1126.000296,2931.38472,6.468425665,136.0915672
1.71E+12,3,0.88799246,1126.154401,2931.382255,6.470863981,137.3099857
1.71E+12,3,0.887871313,1126.307864,2931.379771,6.47251763,138.4888984
1.71E+12,3,0.88775068,1126.460731,2931.377275,6.473467705,139.6283734
1.71E+12,3,0.887630523,1126.613054,2931.374774,6.473792524,140.7285468
1.71E+12,3,0.887510798,1126.764887,2931.372275,6.473567306,141.78962
1.71E+12,3,0.887391463,1126.916284,2931.369783,6.47286385,142.811857
1.71E+12,3,0.887272473,1127.067302,2931.367304,6.471750239,143.7955814
1.71E+12,3,0.887153782,1127.217998,2931.364844,6.470290552,144.7411739
1.71E+12,3,0.887035346,1127.36843,2931.362408,6.468544599,145.6490684
1.71E+12,3,0.886917116,1127.518659,2931.36,6.466567666,146.5197497
1.71E+12,3,0.886799046,1127.668743,2931.357624,6.464410288,147.3537493
1.71E+12,3,0.886681091,1127.81874,2931.355284,6.462118034,148.1516429
1.71E+12,3,0.886563202,1127.968711,2931.352982,6.459731317,148.9140465
1.71E+12,3,0.886445334,1128.118713,2931.350726,6.457285227,149.6416133
1.71E+12,3,0.886327443,1128.268803,2931.34852,6.45480938,150.3350302
1.71E+12,3,0.886209482,1128.419039,2931.34637,6.452327799,150.9950143
1.71E+12,3,0.886091408,1128.569477,2931.344284,6.449858808,151.62231
1.71E+12,3,0.885973177,1128.720169,2931.342267,6.447414959,152.217685
1.71E+12,3,0.88585475,1128.871169,2931.340325,6.445002979,152.7819279
1.71E+12,3,0.885736086,1129.022527,2931.338463,6.442623739,153.3158443
1.71E+12,3,0.885617146,1129.174291,2931.336683,6.440397679,153.8202531
1.71E+12,3,0.885497894,1129.326508,2931.334986,6.438459339,154.2959833
1.71E+12,3,0.885378296,1129.47922,2931.333374,6.436823167,154.7438721
1.71E+12,3,0.885258319,1129.632469,2931.331846,6.435499547,155.164762
1.71E+12,3,0.885137934,1129.786292,2931.330403,6.434495057,155.5594981
1.71E+12,3,0.885017113,1129.940722,2931.329047,6.433812738,155.9289257
1.71E+12,3,0.884895833,1130.095791,2931.327781,6.433452374,156.273888
1.71E+12,3,0.884774072,1130.251525,2931.326605,6.433410787,156.5952237
1.71E+12,3,0.884651812,1130.407947,2931.325522,6.433682129,156.8937648
1.71E+12,3,0.884529035,1130.565078,2931.324533,6.434258185,157.1703352
1.71E+12,3,0.88440573,1130.722933,2931.32364,6.435128674,157.4257485
1.71E+12,3,0.884281887,1130.881524,2931.322847,6.436281552,157.6608063
1.71E+12,3,0.884157497,1131.040861,2931.322155,6.437703304,157.8762975
1.71E+12,3,0.884032557,1131.200949,2931.321566,6.439379241,158.0729959
1.71E+12,3,0.883907065,1131.361788,2931.321079,6.441293776,158.2516601
1.71E+12,3,0.883781022,1131.523377,2931.320692,6.443430701,158.4130319
1.71E+12,3,0.883654433,1131.68571,2931.320402,6.445773439,158.5578359
1.71E+12,3,0.883527306,1131.848776,2931.320206,6.448305289,158.6867785
1.71E+12,3,0.883399648,1132.012564,2931.320104,6.451009655,158.8005476
1.71E+12,3,0.883271475,1132.177056,2931.320093,6.453870246,158.899812
1.71E+12,3,0.883142799,1132.342233,2931.320172,6.45687127,158.9852215
1.71E+12,3,0.883013639,1132.508071,2931.320339,6.45999759,159.0574063
1.71E+12,3,0.882884016,1132.674546,2931.320592,6.463234876,159.1169773
1.71E+12,3,0.88275395,1132.841626,2931.320928,6.466569711,159.1645263
1.71E+12,3,0.882623467,1133.009283,2931.321342,6.469989693,159.2006256
1.71E+12,3,0.882492592,1133.177483,2931.321834,6.473483497,159.2258291
1.71E+12,3,0.882361352,1133.346189,2931.322401,6.477040917,159.2406719
1.71E+12,3,0.882229777,1133.515364,2931.323044,6.480652881,159.245671
1.71E+12,3,0.882097898,1133.684967,2931.323758,6.48431144,159.241326
1.71E+12,3,0.881965747,1133.854959,2931.32454,6.488009732,159.2281191
1.71E+12,3,0.881833356,1134.025295,2931.325387,6.491741916,159.2065163
1.71E+12,3,0.88170076,1134.195934,2931.326296,6.49550309,159.1769675
1.71E+12,3,0.881567992,1134.366831,2931.327264,6.499289176,159.1399071
1.71E+12,3,0.881435087,1134.537943,2931.328284,6.503096785,159.0957549
1.71E+12,3,0.881302079,1134.709225,2931.329352,6.506923068,159.0449166
1.71E+12,3,0.881169001,1134.880635,2931.330463,6.510765533,158.9877845
1.71E+12,3,0.881035887,1135.052128,2931.331616,6.514621855,158.9247375
1.71E+12,3,0.880902771,1135.223664,2931.332809,6.518489662,158.8561428
1.71E+12,3,0.880769682,1135.395203,2931.334039,6.522366315,158.7823551
1.71E+12,3,0.880636648,1135.56671,2931.335307,6.526248662,158.7037183
1.71E+12,3,0.88050369,1135.738159,2931.336608,6.530132795,158.6205652
1.71E+12,3,0.880370827,1135.909529,2931.337938,6.53401379,158.5332179
1.71E+12,3,0.88023807,1136.080804,2931.339293,6.537885441,158.4419887
1.71E+12,3,0.88010543,1136.251973,2931.340666,6.541739998,158.34718
1.71E+12,3,0.879972912,1136.423032,2931.342054,6.545567896,158.2490843
1.71E+12,3,0.879840518,1136.593979,2931.343453,6.549357487,158.147985
1.71E+12,3,0.879708245,1136.764822,2931.344861,6.55309478,158.0441561
1.71E+12,3,0.879576086,1136.935572,2931.346275,6.556649653,157.9378172
1.71E+12,3,0.879444029,1137.106245,2931.347691,6.559907398,157.8291413
1.71E+12,3,0.879312058,1137.276867,2931.349108,6.562999952,157.7183014
1.71E+12,3,0.879180152,1137.447468,2931.350526,6.566075336,157.6054702
1.71E+12,3,0.879048285,1137.618085,2931.351943,6.569160754,157.49082
1.71E+12,3,0.878916423,1137.788763,2931.353354,6.572280808,157.3745225
1.71E+12,3,0.878784531,1137.959554,2931.354757,6.575457661,157.2567484
1.71E+12,3,0.878652565,1138.130516,2931.35615,6.578711214,157.1376666
1.71E+12,3,0.878520477,1138.301718,2931.357529,6.582059271,157.0174438
1.71E+12,3,0.878388212,1138.473234,2931.358892,6.58551773,156.8962444
1.71E+12,3,0.87825571,1138.645146,2931.360239,6.589100749,156.7742297
1.71E+12,3,0.878122904,1138.817547,2931.361566,6.59282093,156.6515574
1.71E+12,3,0.877989722,1138.990534,2931.362874,6.596689493,156.5283818
1.71E+12,3,0.877856084,1139.164216,2931.364159,6.600716439,156.4048527
1.71E+12,3,0.877721905,1139.338709,2931.365421,6.604910715,156.2811157
1.71E+12,3,0.877587094,1139.514138,2931.366659,6.609280367,156.1573115
1.71E+12,3,0.877451553,1139.690634,2931.367871,6.61383268,156.0335757
1.71E+12,3,0.877315179,1139.868338,2931.369056,6.618574313,155.9100387
1.71E+12,3,0.877177862,1140.047398,2931.370212,6.62351141,155.7868251
1.71E+12,3,0.877039488,1140.22797,2931.371339,6.628649711,155.6640541
1.71E+12,3,0.876899937,1140.410217,2931.372435,6.633994635,155.5418386
1.71E+12,3,0.876759083,1140.59431,2931.373501,6.639551352,155.4202857
1.71E+12,3,0.876616794,1140.780426,2931.374534,6.645324842,155.2994961
1.71E+12,3,0.876472935,1140.968748,2931.375532,6.651319925,155.1795644
1.71E+12,3,0.876327366,1141.159467,2931.376495,6.657541288,155.0605788
1.71E+12,3,0.876179943,1141.352779,2931.377424,6.663993476,154.9426209
1.71E+12,3,0.876030516,1141.548885,2931.37832,6.670680879,154.8257662
1.71E+12,3,0.875878934,1141.747989,2931.379183,6.677607696,154.7100837
1.71E+12,3,0.875725043,1141.950303,2931.380014,6.684777873,154.595636
1.71E+12,3,0.875568683,1142.15604,2931.380812,6.692195034,154.4824327
1.71E+12,3,0.875409697,1142.365417,2931.381576,6.69986239,154.3704233
1.71E+12,3,0.875247921,1142.578653,2931.382307,6.707782626,154.2595395
1.71E+12,3,0.875083193,1142.795967,2931.383004,6.715957781,154.1496949
1.71E+12,3,0.874915351,1143.017582,2931.383664,6.724389108,154.0407844
1.71E+12,3,0.87474423,1143.24372,2931.384288,6.733076919,153.9326837
1.71E+12,3,0.874569668,1143.474602,2931.384877,6.74202042,153.8252487
1.71E+12,3,0.874391502,1143.710446,2931.385432,6.751217536,153.7183148
1.71E+12,3,0.874209573,1143.951471,2931.385957,6.760664722,153.6116961
1.71E+12,3,0.874023724,1144.197891,2931.386455,6.770356772,153.5051852
1.71E+12,3,0.873833798,1144.449916,2931.386927,6.780286614,153.3985519
1.71E+12,3,0.873639645,1144.707754,2931.387374,6.790445111,153.2915429
1.71E+12,3,0.873441115,1144.971605,2931.387796,6.80082085,153.183881
1.71E+12,3,0.873238067,1145.241665,2931.388191,6.811399936,153.0752641
1.71E+12,3,0.873030364,1145.518119,2931.388558,6.822165783,152.965365
1.71E+12,3,0.872817873,1145.801147,2931.388897,6.833098918,152.8538301
1.71E+12,3,0.872600469,1146.09092,2931.389209,6.844176779,152.7402796
1.71E+12,3,0.872378037,1146.387598,2931.389496,6.855373528,152.6243058
1.71E+12,3,0.872150465,1146.691331,2931.38976,6.866659871,152.5054735
1.71E+12,3,0.871917655,1147.002255,2931.390005,6.878002891,152.383319
1.71E+12,3,0.871679513,1147.320497,2931.390234,6.889365893,152.2573496
1.71E+12,3,0.871435959,1147.646169,2931.390449,6.900601534,152.1270407
1.71E+12,3,0.871186922,1147.97937,2931.390651,6.911575601,151.9918355
1.71E+12,3,0.87093234,1148.320183,2931.390838,6.922264305,151.8511486
1.71E+12,3,0.870672164,1148.668676,2931.391009,6.932638755,151.704365
1.71E+12,3,0.870406358,1149.024903,2931.391164,6.942665063,151.5508406
1.71E+12,3,0.870134896,1149.388898,2931.391304,6.952304471,151.3899024
1.71E+12,3,0.869857766,1149.76068,2931.391431,6.961513498,151.2208484
1.71E+12,3,0.869574969,1150.14025,2931.391547,6.970244106,151.0429484
1.71E+12,3,0.869286519,1150.527591,2931.391653,6.978443885,150.855444
1.71E+12,3,0.868992443,1150.922667,2931.391752,6.98605626,150.6575499
1.71E+12,3,0.868692782,1151.325426,2931.391848,6.993020712,150.4484544
1.71E+12,3,0.868387591,1151.735793,2931.391945,6.999273015,150.2273204
1.71E+12,3,0.86807694,1152.153678,2931.392044,7.004745491,149.9932866
1.71E+12,3,0.86776091,1152.578971,2931.392143,7.009367279,149.7454691
1.71E+12,3,0.8674396,1153.011541,2931.392243,7.013064619,149.4829627
1.71E+12,3,0.867113119,1153.451239,2931.392343,7.01576114,149.2048424
1.71E+12,3,0.866781593,1153.897899,2931.392445,7.017378176,148.9101657
1.71E+12,3,0.86644516,1154.351335,2931.39255,7.017835074,148.5979744
1.71E+12,3,0.866103972,1154.811341,2931.39266,7.017049518,148.2672968
1.71E+12,3,0.865758193,1155.277696,2931.392775,7.014937868,147.9171499
1.71E+12,3,0.865408003,1155.750159,2931.392897,7.01141549,147.5465425
1.71E+12,3,0.865053594,1156.22847,2931.393029,7.006397105,147.1544771
1.71E+12,3,0.864695168,1156.712355,2931.393172,6.999797131,146.7399534
1.71E+12,3,0.864332942,1157.201521,2931.393325,6.991530033,146.301971
1.71E+12,3,0.863967143,1157.695661,2931.39349,6.981510673,145.8395324
1.71E+12,3,0.863598009,1158.194453,2931.393666,6.969654657,145.3516464
1.71E+12,3,0.863225791,1158.697558,2931.393852,6.955878683,144.8373313
1.71E+12,3,0.862850746,1159.204626,2931.394049,6.940100886,144.2956186
1.71E+12,3,0.862473143,1159.715293,2931.394257,6.922241174,143.7255561
1.71E+12,3,0.862093259,1160.229184,2931.394475,6.902221564,143.126212
1.71E+12,3,0.861711379,1160.74591,2931.394705,6.879966508,142.496678
1.71E+12,3,0.861327794,1161.265077,2931.394947,6.85540321,141.8360736
1.71E+12,3,0.860942804,1161.786279,2931.395201,6.828461939,141.1435492
1.71E+12,3,0.860556712,1162.309101,2931.395465,6.799076323,140.4182905
1.71E+12,3,0.860169827,1162.833124,2931.395738,6.767183641,139.6595215
1.71E+12,3,0.859782463,1163.357921,2931.396019,6.732725092,138.866509
1.71E+12,3,0.859394936,1163.883063,2931.396309,6.695646062,138.0385655
1.71E+12,3,0.859007564,1164.408115,2931.396607,6.655896369,137.1750534
1.71E+12,3,0.858620667,1164.932642,2931.396913,6.613430491,136.2753884
1.71E+12,3,0.858234567,1165.456206,2931.397226,6.568207789,135.3390426
1.71E+12,3,0.857849583,1165.978371,2931.397543,6.520192698,134.3655482
1.71E+12,3,0.857466034,1166.498701,2931.397864,6.469354914,133.3545007
1.71E+12,3,0.857084239,1167.016762,2931.398186,6.415669555,132.3055617
1.71E+12,3,0.856704512,1167.532126,2931.398506,6.359117306,131.2184621
1.71E+12,3,0.856327164,1168.044368,2931.398822,6.299684547,130.0930045
1.71E+12,3,0.8559525,1168.553071,2931.399131,6.237363457,128.929066
1.71E+12,3,0.855580821,1169.057822,2931.399433,6.172152102,127.7266002
1.71E+12,3,0.855212422,1169.558219,2931.399731,6.104054505,126.4856398
1.71E+12,3,0.85484759,1170.05387,2931.400023,6.03308069,125.2062977
1.71E+12,3,0.854486605,1170.544391,2931.400308,5.959246708,123.8887693
1.71E+12,3,0.854129738,1171.02941,2931.400586,5.88257465,122.5333334
1.71E+12,3,0.85377725,1171.508569,2931.400853,5.802979098,121.1403561
1.71E+12,3,0.853429395,1171.981522,2931.401107,5.720398891,119.7102914
1.71E+12,3,0.853086414,1172.447938,2931.401346,5.634900657,118.2436783
1.71E+12,3,0.852748537,1172.907499,2931.401564,5.546555958,116.7411413
1.71E+12,3,0.852415983,1173.359905,2931.401761,5.455441365,115.2033901
1.71E+12,3,0.852088959,1173.804872,2931.401935,5.361638531,113.631219
1.71E+12,3,0.85176766,1174.242132,2931.402086,5.265234224,112.0255068
1.71E+12,3,0.851452267,1174.671434,2931.402216,5.166320348,110.3872149
1.71E+12,3,0.851142948,1175.092548,2931.402325,5.064993934,108.7173866
1.71E+12,3,0.850839859,1175.505258,2931.402411,4.961357108,107.0171453
1.71E+12,3,0.850543139,1175.909372,2931.402472,4.855517026,105.2876921
1.71E+12,3,0.850252915,1176.304713,2931.402509,4.747585792,103.530304
1.71E+12,3,0.849969299,1176.691127,2931.402519,4.637680338,101.7463312
1.71E+12,3,0.849692388,1177.068477,2931.402497,4.525922281,99.93719377
1.71E+12,3,0.849422267,1177.436647,2931.402443,4.412437753,98.10437927
1.71E+12,3,0.849159003,1177.795541,2931.402355,4.297357201,96.24943864
1.71E+12,3,0.848902651,1178.145082,2931.402234,4.180815156,94.37398284
1.71E+12,3,0.848653251,1178.485212,2931.402079,4.062949982,92.47967883
1.71E+12,3,0.848410828,1178.815895,2931.401892,3.943903592,90.56824541
1.71E+12,3,0.848175393,1179.137111,2931.401675,3.823821144,88.64144887
1.71E+12,3,0.847946945,1179.448863,2931.40143,3.702850705,86.70109837
1.71E+12,3,0.847725467,1179.751169,2931.401158,3.581142899,84.74904126
1.71E+12,3,0.84751093,1180.044066,2931.40086,3.45885053,82.78715809
1.71E+12,3,0.847303292,1180.32761,2931.400534,3.336128183,80.81735766
1.71E+12,3,0.847102499,1180.601872,2931.400178,3.213131808,78.84157176
1.71E+12,3,0.846908483,1180.866941,2931.399795,3.090018286,76.86174998
1.71E+12,3,0.846721166,1181.122923,2931.399385,2.966944986,74.87985434
1.71E+12,3,0.846540459,1181.369936,2931.39895,2.844069297,72.89785393
1.71E+12,3,0.846366261,1181.608118,2931.398491,2.721548164,70.91771944
1.71E+12,3,0.84619846,1181.837617,2931.398011,2.599537604,68.94141781
1.71E+12,3,0.846036935,1182.058597,2931.397512,2.478192223,66.97090675
1.71E+12,3,0.845881554,1182.271236,2931.396995,2.357664729,65.00812938
1.71E+12,3,0.845732179,1182.475722,2931.396465,2.238105442,63.05500895
1.71E+12,3,0.845588663,1182.672254,2931.395924,2.119661807,61.11344356
1.71E+12,3,0.845450851,1182.861039,2931.395373,2.002477913,59.18530106
1.71E+12,3,0.845318585,1183.042295,2931.394815,1.886694016,57.27241404
1.71E+12,3,0.845191697,1183.216247,2931.394253,1.772446074,55.37657494
1.71E+12,3,0.845070019,1183.383125,2931.393689,1.659865296,53.49953137
1.71E+12,3,0.844953374,1183.543168,2931.393126,1.549077698,51.64298162
1.71E+12,3,0.844841584,1183.696618,2931.392567,1.440203686,49.80857029
1.71E+12,3,0.844734467,1183.843723,2931.392018,1.333357654,47.99788423
1.71E+12,3,0.844631839,1183.984733,2931.391482,1.228647599,46.21244868
1.71E+12,3,0.844533515,1184.1199,2931.390965,1.126174769,44.45372363
1.71E+12,3,0.844439307,1184.249479,2931.390469,1.02603333,42.72310046
1.71E+12,3,0.844349028,1184.373727,2931.389996,0.928310068,41.02189891
1.71E+12,3,0.84426249,1184.492897,2931.389547,0.833084108,39.3513642
1.71E+12,3,0.844179505,1184.607247,2931.389125,0.74042668,37.71266459
1.71E+12,3,0.844099889,1184.717027,2931.388733,0.650400904,36.10688916
1.71E+12,3,0.844023458,1184.822488,2931.388373,0.56306162,34.53504588
1.71E+12,3,0.84395003,1184.923879,2931.388048,0.478455245,32.99806006
1.71E+12,3,0.843879426,1185.021444,2931.387762,0.396619666,31.49677306
1.71E+12,3,0.84381147,1185.115422,2931.387516,0.317584178,30.03194133
1.71E+12,3,0.84374599,1185.206048,2931.387314,0.241253653,28.60423665
1.71E+12,3,0.843682818,1185.293552,2931.387158,0.167542971,27.21424564
1.71E+12,3,0.843621788,1185.378158,2931.387049,0.09648272,25.86246885
1.71E+12,3,0.843562743,1185.460085,2931.386992,0.028094034,24.54932102
1.71E+12,3,0.843505525,1185.539544,2931.386988,-0.03761111,23.2751317
1.71E+12,3,0.843449986,1185.616741,2931.38704,-0.100629563,22.04014613
1.71E+12,3,0.843395979,1185.691872,2931.387147,-0.160966647,20.84452643
1.71E+12,3,0.843343367,1185.765129,2931.387313,-0.218635763,19.68835304
1.71E+12,3,0.843292016,1185.836691,2931.387537,-0.273657982,18.57162642
1.71E+12,3,0.843241798,1185.906735,2931.387819,-0.32606161,17.49426907
1.71E+12,3,0.843192592,1185.975425,2931.388158,-0.375881735,16.45612765
1.71E+12,3,0.843144283,1186.042918,2931.388555,-0.423159756,15.45697549
1.71E+12,3,0.843096762,1186.109364,2931.389009,-0.467942905,14.49651517
1.71E+12,3,0.843049925,1186.174903,2931.389522,-0.510283755,13.57438137
1.71E+12,3,0.843003677,1186.239665,2931.390096,-0.550239724,12.6901439
1.71E+12,3,0.842957929,1186.303773,2931.390734,-0.587872576,11.84331081
1.71E+12,3,0.842912595,1186.367341,2931.391436,-0.623247919,11.03333177
1.71E+12,3,0.8428676,1186.430474,2931.392201,-0.656434711,10.25960144
1.71E+12,3,0.842822871,1186.49327,2931.393028,-0.68750477,9.521463047
1.71E+12,3,0.842778344,1186.555816,2931.393914,-0.71653229,8.818212013
1.71E+12,3,0.842733958,1186.618195,2931.394856,-0.743593373,8.14909964
1.71E+12,3,0.84268966,1186.680479,2931.395852,-0.768765571,7.513336863
1.71E+12,3,0.842645403,1186.742732,2931.396902,-0.792127445,6.910098038
1.71E+12,3,0.842601143,1186.805013,2931.398005,-0.813758146,6.338524733
1.71E+12,3,0.842556843,1186.867371,2931.399162,-0.833737012,5.79772953
1.71E+12,3,0.842512472,1186.929849,2931.400371,-0.852143188,5.286799794
1.71E+12,3,0.842468003,1186.992484,2931.40163,-0.869055274,4.804801419
1.71E+12,3,0.842423413,1187.055304,2931.402935,-0.884550992,4.350782506
1.71E+12,3,0.842378685,1187.118333,2931.404282,-0.898706883,3.923776991
1.71E+12,3,0.842333805,1187.181588,2931.405665,-0.911598035,3.522808171
1.71E+12,3,0.842288765,1187.24508,2931.407079,-0.923297829,3.146892153
1.71E+12,3,0.842243561,1187.308815,2931.40852,-0.933877726,2.795041177
1.71E+12,3,0.842198191,1187.37279,2931.409986,-0.943407076,2.466266825
1.71E+12,3,0.842152659,1187.437002,2931.411475,-0.951952955,2.159583102
1.71E+12,3,0.842106972,1187.501438,2931.412986,-0.959580036,1.874009363
1.71E+12,3,0.842061142,1187.566083,2931.414515,-0.966350486,1.608573102
1.71E+12,3,0.842015183,1187.630915,2931.416058,-0.972323895,1.362312568
1.71E+12,3,0.841969111,1187.69591,2931.417613,-0.977557223,1.134279228
1.71E+12,3,0.841922948,1187.761038,2931.419175,-0.982104786,0.92354005
1.71E+12,3,0.84187672,1187.82626,2931.42074,-0.986018258,0.729179614
1.71E+12,3,0.84183046,1187.891532,2931.422305,-0.989346704,0.550302046
1.71E+12,3,0.841784201,1187.956805,2931.423864,-0.992136631,0.386032764
1.71E+12,3,0.841737982,1188.022025,2931.425414,-0.994432063,0.235520052
1.71E+12,3,0.841691843,1188.087136,2931.426952,-0.996274635,0.097936443
1.71E+12,3,0.841645825,1188.152079,2931.428476,-0.997703706,-0.027520072
1.71E+12,3,0.841599971,1188.216794,2931.429981,-0.998756486,-0.141625015
1.71E+12,3,0.841554326,1188.281218,2931.431463,-0.999468176,-0.245126569
1.71E+12,3,0.841508934,1188.345287,2931.432919,-0.999872127,-0.338744896
1.71E+12,3,0.841463843,1188.408935,2931.434346,-1,-0.423171613
1.71E+12,3,0.841419101,1188.472095,2931.435741,-1,-0.499068605
1.71E+12,3,0.841374756,1188.534698,2931.437098,-1,-0.567067945