Shimmer_86BB_TimestampSync_Unix_CAL,Shimmer_86BB_GSR_Range_LPF_CAL,Shimmer_86BB_GSR_Skin_Conductance_LPF_CAL,Shimmer_86BB_GSR_Skin_Resistance_LPF_CAL,Shimmer_86BB_PPG_A13_LPF_CAL,Shimmer_86BB_PPG_IBI_LPF_CAL,Shimmer_86BB_PPGtoHR_LPF_CAL
1.71E+12,2,3.218315018,310.7216025,2935.531136,-1,-1
1.71E+12,2,3.218315018,310.7216025,2935.531136,-1,-1
1.71E+12,2,3.21831502,310.7216024,2935.531136,-1,-1
1.71E+12,2,3.218315024,310.721602,2935.531136,-1,-1
1.71E+12,2,3.218315033,310.7216011,2935.531136,-1,-1
1.71E+12,2,3.218315048,310.7215997,2935.531138,-1,-1
1.71E+12,2,3.218315069,310.7215977,2935.531142,-1,-1
1.71E+12,2,3.218315096,310.7215951,2935.531148,-1,-1
1.71E+12,2,3.218315129,310.7215919,2935.531158,-1,-1
1.71E+12,2,3.218315169,310.721588,2935.531173,-1,-1
1.71E+12,2,3.218315215,310.7215836,2935.531194,-1,-1
1.71E+12,2,3.218315268,310.7215784,2935.531221,-1,-1
1.71E+12,2,3.218315327,310.7215728,2935.531254,-1,-1
1.71E+12,2,3.218315392,310.7215665,2935.531293,-1,-1
1.71E+12,2,3.218315464,310.7215596,2935.531333,-1,-1
1.71E+12,2,3.218315542,310.721552,2935.53137,-1,-1
1.71E+12,2,3.218315624,310.7215441,2935.531397,-1,-1
1.71E+12,2,3.218315709,310.7215359,2935.531409,-1,-1
1.71E+12,2,3.218315796,310.7215275,2935.531399,-1,-1
1.71E+12,2,3.218315884,310.721519,2935.531358,-1,-1
1.71E+12,2,3.218315973,310.7215104,2935.531278,-1,-1
1.71E+12,2,3.218316061,310.721502,2935.531149,-1,-1
1.71E+12,2,3.218316143,310.7214941,2935.530963,-1,-1
1.71E+12,2,3.218316215,310.7214871,2935.530713,-1,-1
1.71E+12,2,3.218316275,310.7214813,2935.530389,-1,-1
1.71E+12,2,3.218316319,310.7214771,2935.529984,-1,-1
1.71E+12,2,3.218316343,310.7214748,2935.529493,-1,-1
1.71E+12,2,3.218316347,310.7214744,2935.528908,-1,-1
1.71E+12,2,3.218316328,310.7214763,2935.528225,-1,-1
1.71E+12,2,3.218316287,310.7214803,2935.527438,-1,-1
1.71E+12,2,3.218316225,310.7214863,2935.52654,-1,-1
1.71E+12,2,3.218316137,310.7214948,2935.525528,-1,-1
1.71E+12,2,3.218316019,310.7215062,2935.524395,-1,-1
1.71E+12,2,3.218315865,310.7215211,2935.523135,-1,-1
1.71E+12,2,3.21831567,310.7215401,2935.521744,-1,-1
1.71E+12,2,3.218315424,310.7215639,2935.520215,-1,-1
1.71E+12,2,3.218315118,310.7215935,2935.518546,-1,-1
1.71E+12,2,3.218314745,310.7216295,2935.516732,-1,-1
1.71E+12,2,3.218314296,310.721673,2935.514768,-1,-1
1.71E+12,2,3.218313759,310.721725,2935.512649,-1,-1
1.71E+12,2,3.218313123,310.7217864,2935.51037,-1,-1
1.71E+12,2,3.218312381,310.7218582,2935.507928,-1,-1
1.71E+12,2,3.218311523,310.7219411,2935.505317,-1,-1
1.71E+12,2,3.218310541,310.7220361,2935.502531,-1,-1
1.71E+12,2,3.218309426,310.7221439,2935.499566,-1,-1
1.71E+12,2,3.218308169,310.7222655,2935.496419,-1,-1
1.71E+12,2,3.218306757,310.722402,2935.493084,-1,-1
1.71E+12,2,3.218305177,310.7225547,2935.489555,-1,-1
1.71E+12,2,3.218303414,310.7227251,2935.485829,-1,-1
1.71E+12,2,3.218301456,310.7229145,2935.4819,-1,-1
1.71E+12,2,3.21829929,310.7231238,2935.477763,-1,-1
1.71E+12,2,3.218296903,310.7233545,2935.473417,-1,-1
1.71E+12,2,3.218294281,310.723608,2935.468855,-1,-1
1.71E+12,2,3.21829141,310.7238856,2935.464076,-1,-1
1.71E+12,2,3.218288272,310.7241888,2935.459077,-1,-1
1.71E+12,2,3.218284851,310.7245195,2935.453856,-1,-1
1.71E+12,2,3.21828113,310.7248793,2935.448411,-1,-1
1.71E+12,2,3.218277092,310.7252696,2935.442742,-1,-1
1.71E+12,2,3.21827272,310.7256921,2935.436849,-1,-1
1.71E+12,2,3.218267999,310.7261485,2935.430732,-1,-1
1.71E+12,2,3.218262911,310.7266403,2935.424394,-1,-1
1.71E+12,2,3.21825744,310.7271692,2935.417836,-1,-1
1.71E+12,2,3.218251568,310.7277368,2935.411062,-1,-1
1.71E+12,2,3.218245274,310.7283452,2935.404074,-1,-1
1.71E+12,2,3.21823854,310.7289961,2935.396877,-1,-1
1.71E+12,2,3.218231347,310.7296914,2935.389475,-1,-1
1.71E+12,2,3.218223676,310.7304328,2935.381874,-1,-1
1.71E+12,2,3.21821551,310.7312222,2935.374079,-1,-1
1.71E+12,2,3.218206833,310.7320609,2935.366096,-1,-1
1.71E+12,2,3.218197625,310.7329509,2935.357928,-1,-1
1.71E+12,2,3.218187866,310.7338942,2935.349578,-1,-1
1.71E+12,2,3.218177536,310.7348927,2935.341046,-1,-1
1.71E+12,2,3.218166616,310.7359482,2935.332337,-1,-1
1.71E+12,2,3.21815509,310.7370623,2935.323451,-1,-1
1.71E+12,2,3.218142937,310.738237,2935.314393,-1,-1
1.71E+12,2,3.21813014,310.739474,2935.305165,-1,-1
1.71E+12,2,3.21811668,310.7407751,2935.295771,-1,-1
1.71E+12,2,3.21810254,310.7421419,2935.286215,-1,-1
1.71E+12,2,3.218087703,310.743576,2935.276502,-1,-1
1.71E+12,2,3.218072152,310.7450792,2935.266637,-1,-1
1.71E+12,2,3.218055868,310.7466532,2935.256626,-1,-1
1.71E+12,2,3.218038835,310.7482997,2935.246477,-1,-1
1.71E+12,2,3.218021037,310.75002,2935.236199,-1,-1
1.71E+12,2,3.218002461,310.7518157,2935.225802,-1,-1
1.71E+12,2,3.217983091,310.7536879,2935.215295,-1,-1
1.71E+12,2,3.217962917,310.755638,2935.20469,-1,-1
1.71E+12,2,3.217941925,310.7576672,2935.194,-1,-1
1.71E+12,2,3.217920099,310.759777,2935.183236,-1,-1
1.71E+12,2,3.217897429,310.7619683,2935.172411,-1,-1
1.71E+12,2,3.217873903,310.7642425,2935.161539,-1,-1
1.71E+12,2,3.217849509,310.7666006,2935.150632,-1,-1
1.71E+12,2,3.217824239,310.7690433,2935.139705,-1,-1
1.71E+12,2,3.217798087,310.7715713,2935.12877,-1,-1
1.71E+12,2,3.217771047,310.7741852,2935.117841,-1,-1
1.71E+12,2,3.217743115,310.7768852,2935.10693,-1,-1
1.71E+12,2,3.217714287,310.7796719,2935.096049,-1,-1
1.71E+12,2,3.217684558,310.7825458,2935.08521,-1,-1
1.71E+12,2,3.217653925,310.7855071,2935.074426,-1,-1
1.71E+12,2,3.217622387,310.7885558,2935.063705,-1,-1
1.71E+12,2,3.217589946,310.7916918,2935.05306,-1,-1
1.71E+12,2,3.217556607,310.7949148,2935.042502,-1,-1
1.71E+12,2,3.217522371,310.7982244,2935.032042,-1,-1
1.71E+12,2,3.217487243,310.8016202,2935.021689,-1,-1
1.71E+12,2,3.217451232,310.8051015,2935.011449,-1,-1
1.71E+12,2,3.217414344,310.8086676,2935.001331,-1,-1
1.71E+12,2,3.217376589,310.8123174,2934.991345,-1,-1
1.71E+12,2,3.217337977,310.8160503,2934.981499,-1,-1
1.71E+12,2,3.217298517,310.819865,2934.971803,-1,-1
1.71E+12,2,3.21725822,310.8237607,2934.962265,-1,-1
1.71E+12,2,3.217217098,310.8277363,2934.952895,-1,-1
1.71E+12,2,3.217175165,310.8317902,2934.9437,-1,-1
1.71E+12,2,3.217132434,310.8359213,2934.934691,-1,-1
1.71E+12,2,3.217088921,310.840128,2934.925874,-1,-1
1.71E+12,2,3.21704464,310.844409,2934.917258,-1,-1
1.71E+12,2,3.216999609,310.8487627,2934.908849,-1,-1
1.71E+12,2,3.216953844,310.8531872,2934.900653,-1,-1
1.71E+12,2,3.216907366,310.8576808,2934.892676,-1,-1
1.71E+12,2,3.216860195,310.8622414,2934.884923,-1,-1
1.71E+12,2,3.216812353,310.8668668,2934.877397,-1,-1
1.71E+12,2,3.216763867,310.8715546,2934.8701,-1,-1
1.71E+12,2,3.216714761,310.8763025,2934.86303,-1,-1
1.71E+12,2,3.216665058,310.8811079,2934.856187,-1,-1
1.71E+12,2,3.216614784,310.8859688,2934.849568,-1,-1
1.71E+12,2,3.216563961,310.8908827,2934.843168,-1,-1
1.71E+12,2,3.216512617,310.895847,2934.836983,-1,-1
1.71E+12,2,3.21646078,310.9008592,2934.831009,-1,-1
1.71E+12,2,3.216408479,310.9059161,2934.825243,-1,-1
1.71E+12,2,3.216355744,310.9110152,2934.819678,-1,-1
1.71E+12,2,3.216302599,310.9161539,2934.814308,-1,-1
1.71E+12,2,3.216249075,310.9213293,2934.809125,-1,-1
1.71E+12,2,3.216195201,310.9265386,2934.804122,-1,-1
1.71E+12,2,3.216141008,310.9317789,2934.799291,-1,-1
1.71E+12,2,3.216086522,310.9370474,2934.794623,-1,-1
1.71E+12,2,3.216031773,310.9423415,2934.790107,-1,-1
1.71E+12,2,3.215976789,310.9476585,2934.785735,-1,-1
1.71E+12,2,3.215921598,310.9529955,2934.781498,-1,-1
1.71E+12,2,3.215866228,310.9583498,2934.777385,-1,-1
1.71E+12,2,3.215810709,310.9637187,2934.773387,-1,-1
1.71E+12,2,3.215755067,310.9690995,2934.769495,-1,-1
1.71E+12,2,3.215699332,310.9744894,2934.765697,-1,-1
1.71E+12,2,3.215643533,310.9798855,2934.761985,-1,-1
1.71E+12,2,3.215587699,310.9852852,2934.758344,-1,-1
1.71E+12,2,3.215531858,310.9906856,2934.754765,-1,-1
1.71E+12,2,3.215476036,310.9960842,2934.751234,-1,-1
1.71E+12,2,3.215420259,311.0014786,2934.74774,-1,-1
1.71E+12,2,3.215364552,311.0068663,2934.744272,-1,-1
1.71E+12,2,3.21530894,311.0122448,2934.740816,-1,-1
1.71E+12,2,3.215253447,311.0176121,2934.737364,-1,-1
1.71E+12,2,3.215198095,311.0229656,2934.733904,-1,-1
1.71E+12,2,3.215142908,311.0283034,2934.730427,-1,-1
1.71E+12,2,3.215087907,311.0336233,2934.726924,-1,-1
1.71E+12,2,3.215033113,311.0389232,2934.723384,-1,-1
1.71E+12,2,3.214978548,311.0442012,2934.719798,-1,-1
1.71E+12,2,3.214924232,311.0494551,2934.716158,-1,-1
1.71E+12,2,3.214870182,311.0546833,2934.712453,-1,-1
1.71E+12,2,3.21481642,311.0598839,2934.708674,-1,-1
1.71E+12,2,3.214762961,311.0650553,2934.704813,-1,-1
1.71E+12,2,3.214709822,311.0701958,2934.700861,-1,-1
1.71E+12,2,3.214657017,311.0753041,2934.696809,-1,-1
1.71E+12,2,3.214604559,311.0803789,2934.692649,-1,-1
1.71E+12,2,3.214552462,311.0854189,2934.688375,-1,-1
1.71E+12,2,3.214500738,311.090423,2934.68398,-1,-1
1.71E+12,2,3.214449397,311.0953901,2934.679457,-1,-1
1.71E+12,2,3.214398452,311.100319,2934.674801,-1,-1
1.71E+12,2,3.214347914,311.1052088,2934.670006,-1,-1
1.71E+12,2,3.214297791,311.1100584,2934.665068,-1,-1
1.71E+12,2,3.21424809,311.1148673,2934.659982,-1,-1
1.71E+12,2,3.214198818,311.1196348,2934.654745,-1,-1
1.71E+12,2,3.214149982,311.1243603,2934.649353,-1,-1
1.71E+12,2,3.214101588,311.1290432,2934.643804,-1,-1
1.71E+12,2,3.21405364,311.133683,2934.638097,-1,-1
1.71E+12,2,3.214006142,311.1382794,2934.63223,-1,-1
1.71E+12,2,3.213959097,311.142832,2934.626203,-1,-1
1.71E+12,2,3.21391251,311.1473405,2934.620017,-1,-1
1.71E+12,2,3.213866383,311.1518046,2934.613675,-1,-1
1.71E+12,2,3.213820717,311.1562241,2934.607179,-1,-1
1.71E+12,2,3.213775518,311.1605987,2934.600529,-1,-1
1.71E+12,2,3.213730786,311.1649281,2934.593732,-1,-1
1.71E+12,2,3.213686523,311.1692123,2934.586793,-1,-1
1.71E+12,2,3.213642729,311.1734512,2934.57972,-1,-1
1.71E+12,2,3.213599403,311.1776449,2934.57252,-1,-1
1.71E+12,2,3.213556544,311.1817935,2934.565202,-1,-1
1.71E+12,2,3.213514149,311.1858973,2934.557777,-1,-1
1.71E+12,2,3.213472213,311.1899569,2934.550255,-1,-1
1.71E+12,2,3.21343073,311.1939726,2934.54265,-1,-1
1.71E+12,2,3.213389698,311.1979449,2934.534975,-1,-1
1.71E+12,2,3.213349113,311.201874,2934.527242,-1,-1
1.71E+12,2,3.213308973,311.2057601,2934.519468,-1,-1
1.71E+12,2,3.213269277,311.2096033,2934.511667,-1,-1
1.71E+12,2,3.213230022,311.213404,2934.503855,-1,-1
1.71E+12,2,3.213191206,311.2171622,2934.496048,-1,-1
1.71E+12,2,3.213152826,311.2208784,2934.488261,-1,-1
1.71E+12,2,3.213114878,311.2245528,2934.48051,-1,-1
1.71E+12,2,3.213077359,311.2281858,2934.472808,-1,-1
1.71E+12,2,3.213040266,311.2317775,2934.465169,-1,-1
1.71E+12,2,3.213003599,311.2353282,2934.457607,-1,-1
1.71E+12,2,3.212967356,311.238838,2934.450133,-1,-1
1.71E+12,2,3.212931536,311.2423068,2934.442758,-1,-1
1.71E+12,2,3.212896138,311.2457348,2934.435495,-1,-1
1.71E+12,2,3.21286116,311.2491223,2934.428353,-1,-1
1.71E+12,2,3.2128266,311.2524694,2934.421345,-1,-1
1.71E+12,2,3.212792455,311.2557763,2934.41448,-1,-1
1.71E+12,2,3.212758723,311.2590434,2934.407768,-1,-1
1.71E+12,2,3.212725399,311.2622709,2934.401219,-1,-1
1.71E+12,2,3.212692482,311.2654592,2934.39484,-1,-1
1.71E+12,2,3.21265997,311.2686083,2934.38864,-1,-1
1.71E+12,2,3.212627863,311.2717182,2934.382629,-1,-1
1.71E+12,2,3.212596161,311.274789,2934.376816,-1,-1
1.71E+12,2,3.212564863,311.2778207,2934.37121,-1,-1
1.71E+12,2,3.21253397,311.2808132,2934.365821,-1,-1
1.71E+12,2,3.212503484,311.2837663,2934.36066,-1,-1
1.71E+12,2,3.212473407,311.28668,2934.355734,-1,-1
1.71E+12,2,3.21244374,311.2895539,2934.351054,-1,-1
1.71E+12,2,3.212414483,311.2923882,2934.346628,-1,-1
1.71E+12,2,3.212385634,311.2951829,2934.342468,-1,-1
1.71E+12,2,3.212357195,311.297938,2934.338586,-1,-1
1.71E+12,2,3.212329169,311.3006531,2934.334994,-1,-1
1.71E+12,2,3.212301557,311.3033282,2934.331702,-1,-1
1.71E+12,2,3.212274356,311.3059635,2934.328721,-1,-1
1.71E+12,2,3.212247569,311.3085588,2934.326062,-1,-1
1.71E+12,2,3.212221194,311.3111141,2934.323733,-1,-1
1.71E+12,2,3.212195232,311.3136294,2934.321744,-1,-1
1.71E+12,2,3.212169687,311.3161044,2934.320102,-1,-1
1.71E+12,2,3.212144553,311.3185396,2934.318811,-1,-1
1.71E+12,2,3.212119815,311.3209365,2934.317875,-1,-1
1.71E+12,2,3.212095457,311.3232967,2934.317296,-1,-1
1.71E+12,2,3.212071462,311.3256217,2934.317072,-1,-1
1.71E+12,2,3.212047812,311.3279133,2934.317204,-1,-1
1.71E+12,2,3.212024489,311.3301733,2934.317687,-1,-1
1.71E+12,2,3.212001467,311.3324042,2934.318518,-1,-1
1.71E+12,2,3.211978723,311.3346082,2934.319692,-1,-1
1.71E+12,2,3.211956235,311.3367875,2934.321203,-1,-1
1.71E+12,2,3.211933982,311.3389441,2934.323043,-1,-1
1.71E+12,2,3.21191194,311.3410804,2934.325205,-1,-1
1.71E+12,2,3.211890082,311.3431989,2934.327682,-1,-1
1.71E+12,2,3.211868386,311.3453018,2934.330462,-1,-1
1.71E+12,2,3.211846824,311.3473919,2934.333535,-1,-1
1.71E+12,2,3.211825364,311.3494722,2934.336889,-1,-1
1.71E+12,2,3.211803976,311.3515457,2934.340513,-1,-1
1.71E+12,2,3.211782627,311.3536156,2934.344394,-1,-1
1.71E+12,2,3.211761283,311.3556852,2934.348521,-1,-1
1.71E+12,2,3.211739906,311.3577581,2934.352881,-1,-1
1.71E+12,2,3.211718457,311.3598383,2934.357461,-1,-1
1.71E+12,2,3.211696892,311.3619299,2934.36225,-1,-1
1.71E+12,2,3.211675163,311.3640375,2934.367234,-1,-1
1.71E+12,2,3.211653225,311.3661658,2934.372402,-1,-1
1.71E+12,2,3.211631028,311.3683194,2934.377741,-1,-1
1.71E+12,2,3.211608525,311.3705029,2934.383238,-1,-1
1.71E+12,2,3.211585667,311.3727211,2934.388882,-1,-1
1.71E+12,2,3.211562401,311.3749792,2934.394664,-1,-1
1.71E+12,2,3.211538671,311.3772826,2934.400572,-1,-1
1.71E+12,2,3.21151442,311.3796368,2934.406596,-1,-1
1.71E+12,2,3.211489588,311.3820477,2934.412725,-1,-1
1.71E+12,2,3.211464113,311.3845214,2934.418949,-1,-1
1.71E+12,2,3.211437931,311.387064,2934.425256,-1,-1
1.71E+12,2,3.211410982,311.3896815,2934.431632,-1,-1
1.71E+12,2,3.2113832,311.3923801,2934.438064,-1,-1
1.71E+12,2,3.211354519,311.3951663,2934.444537,-1,-1
1.71E+12,2,3.211324872,311.3980467,2934.451036,-1,-1
1.71E+12,2,3.211294191,311.4010278,2934.457547,-1,-1
1.71E+12,2,3.21126241,311.4041161,2934.464055,-1,-1
1.71E+12,2,3.21122946,311.4073185,2934.470543,-1,-1
1.71E+12,2,3.211195268,311.4106417,2934.476997,-1,-1
1.71E+12,2,3.211159764,311.4140928,2934.4834,-1,-1
1.71E+12,2,3.211122873,311.4176789,2934.489737,-1,-1
1.71E+12,2,3.211084523,311.4214073,2934.49599,-1,-1
1.71E+12,2,3.211044641,311.4252848,2934.502146,-1,-1
1.71E+12,2,3.211003154,311.4293187,2934.508191,-1,-1
1.71E+12,2,3.210959987,311.4335161,2934.514111,-1,-1
1.71E+12,2,3.210915069,311.4378842,2934.519896,-1,-1
1.71E+12,2,3.210868329,311.4424297,2934.52554,-1,-1
1.71E+12,2,3.210819697,311.4471595,2934.531037,-1,-1
1.71E+12,2,3.2107691,311.4520806,2934.53638,-1,-1
1.71E+12,2,3.210716471,311.4571996,2934.541568,-1,-1
1.71E+12,2,3.210661747,311.4625227,2934.546598,-1,-1
1.71E+12,2,3.210604864,311.4680559,2934.551469,-1,-1
1.71E+12,2,3.210545763,311.4738053,2934.55618,-1,-1
1.71E+12,2,3.210484382,311.4797767,2934.560733,-1,-1
1.71E+12,2,3.210420663,311.4859757,2934.565127,-1,-1
1.71E+12,2,3.210354552,311.4924077,2934.569364,-1,-1
1.71E+12,2,3.210285997,311.4990778,2934.573443,-1,-1
1.71E+12,2,3.210214948,311.5059907,2934.577364,-1,-1
1.71E+12,2,3.210141363,311.5131506,2934.581124,-1,-1
1.71E+12,2,3.210065203,311.5205613,2934.584723,-1,-1
1.71E+12,2,3.209986429,311.5282266,2934.588161,-1,-1
1.71E+12,2,3.209905005,311.5361499,2934.591436,-1,-1
1.71E+12,2,3.209820902,311.5443341,2934.594548,-1,-1
1.71E+12,2,3.209734091,311.5527822,2934.597498,-1,-1
1.71E+12,2,3.209644545,311.5614966,2934.600283,-1,-1
1.71E+12,2,3.209552243,311.5704794,2934.602904,-1,-1
1.71E+12,2,3.209457168,311.5797323,2934.605362,-1,-1
1.71E+12,2,3.209359308,311.5892565,2934.607655,-1,-1
1.71E+12,2,3.209258654,311.5990529,2934.609784,-1,-1
1.71E+12,2,3.209155202,311.6091218,2934.611751,-1,-1
1.71E+12,2,3.209048954,311.6194631,2934.613557,-1,-1
1.71E+12,2,3.208939915,311.6300763,2934.615203,-1,-1
1.71E+12,2,3.208828095,311.6409603,2934.616691,-1,-1
1.71E+12,2,3.208713511,311.6521137,2934.618024,-1,-1
1.71E+12,2,3.208596186,311.6635342,2934.619204,-1,-1
1.71E+12,2,3.208476145,311.6752193,2934.620234,-1,-1
1.71E+12,2,3.208353419,311.687166,2934.621119,-1,-1
1.71E+12,2,3.208228041,311.6993711,2934.621858,-1,-1
1.71E+12,2,3.208100051,311.7118308,2934.622458,-1,-1
1.71E+12,2,3.20796949,311.7245409,2934.622925,-1,-1
1.71E+12,2,3.207836406,311.737497,2934.623264,-1,-1
1.71E+12,2,3.207700852,311.7506937,2934.623479,-1,-1
1.71E+12,2,3.207562888,311.7641255,2934.623574,-1,-1
1.71E+12,2,3.207422573,311.7777863,2934.623553,-1,-1
1.71E+12,2,3.207279979,311.7916694,2934.62342,-1,-1
1.71E+12,2,3.207135181,311.8057673,2934.623179,-1,-1
1.71E+12,2,3.206988255,311.8200727,2934.622835,-1,-1
1.71E+12,2,3.206839285,311.8345774,2934.622391,-1,-1
1.71E+12,2,3.206688359,311.8492728,2934.62185,-1,-1
1.71E+12,2,3.206535565,311.8641505,2934.621216,-1,-1
1.71E+12,2,3.206380996,311.8792013,2934.620495,-1,-1
1.71E+12,2,3.20622475,311.8944158,2934.61969,-1,-1
1.71E+12,2,3.206066927,311.9097841,2934.618809,-1,-1
1.71E+12,2,3.205907631,311.9252961,2934.617855,-1,-1
1.71E+12,2,3.205746967,311.9409418,2934.616835,-1,-1
1.71E+12,2,3.205585039,311.9567109,2934.615757,-1,-1
1.71E+12,2,3.205421955,311.9725928,2934.614631,-1,-1
1.71E+12,2,3.205257829,311.9885767,2934.613463,-1,-1
1.71E+12,2,3.205092777,312.0046511,2934.612263,-1,-1
1.71E+12,2,3.204926915,312.0208047,2934.611036,-1,-1
1.71E+12,2,3.204760361,312.037026,2934.609785,-1,-1
1.71E+12,2,3.204593238,312.0533032,2934.608516,-1,-1
1.71E+12,2,3.204425663,312.0696248,2934.60723,-1,-1
1.71E+12,2,3.204257757,312.0859789,2934.605933,-1,-1
1.71E+12,2,3.204089643,312.1023537,2934.604627,-1,-1
1.71E+12,2,3.203921443,312.1187374,2934.603315,-1,-1
1.71E+12,2,3.203753276,312.1351181,2934.602001,-1,-1
1.71E+12,2,3.203585263,312.1514842,2934.600689,-1,-1
1.71E+12,2,3.203417528,312.1678237,2934.599382,-1,-1
1.71E+12,2,3.203250191,312.1841248,2934.598084,-1,-1
1.71E+12,2,3.203083373,312.2003757,2934.596801,-1,-1
1.71E+12,2,3.202917193,312.2165649,2934.595538,-1,-1
1.71E+12,2,3.20275177,312.2326808,2934.594298,-1,-1
1.71E+12,2,3.202587219,312.248712,2934.593089,-1,-1
1.71E+12,2,3.202423654,312.2646477,2934.591914,-1,-1
1.71E+12,2,3.202261184,312.2804771,2934.590782,-1,-1
1.71E+12,2,3.202099919,312.2961895,2934.589695,-1,-1
1.71E+12,2,3.201939969,312.3117743,2934.588661,-1,-1
1.71E+12,2,3.201781436,312.3272214,2934.587687,-1,-1
1.71E+12,2,3.201624421,312.3425209,2934.586777,-1,-1
1.71E+12,2,3.201469022,312.3576634,2934.585938,-1,-1
1.71E+12,2,3.201315334,312.3726397,2934.585176,-1,-1
1.71E+12,2,3.201163449,312.3874407,2934.584494,-1,-1
1.71E+12,2,3.201013454,312.4020579,2934.583898,-1,-1
1.71E+12,2,3.200865434,312.4164831,2934.583391,-1,-1
1.71E+12,2,3.200719468,312.4307085,2934.582973,-1,-1
1.71E+12,2,3.200575633,312.4447266,2934.582649,-1,-1
1.71E+12,2,3.200434002,312.4585303,2934.582422,-1,-1
1.71E+12,2,3.200294645,312.4721129,2934.582294,-1,-1
1.71E+12,2,3.200157622,312.4854683,2934.582267,-1,-1
1.71E+12,2,3.200022996,312.4985906,2934.582343,-1,-1
1.71E+12,2,3.199890827,312.5114738,2934.58252,-1,-1
1.71E+12,2,3.199761169,312.5241127,2934.582798,-1,-1
1.71E+12,2,3.199634069,312.5365025,2934.583178,-1,-1
1.71E+12,2,3.199509572,312.548639,2934.583661,-1,-1
1.71E+12,2,3.199387716,312.5605185,2934.584249,-1,-1
1.71E+12,2,3.199268534,312.5721377,2934.584941,-1,-1
1.71E+12,2,3.199152054,312.5834938,2934.585738,-1,-1
1.71E+12,2,3.199038302,312.5945844,2934.58664,-1,-1
1.71E+12,2,3.198927296,312.6054075,2934.587647,-1,-1
1.71E+12,2,3.198819053,312.6159618,2934.588758,-1,-1
1.71E+12,2,3.198713582,312.626246,2934.589974,-1,-1
1.71E+12,2,3.198610891,312.6362597,2934.591295,-1,-1
1.71E+12,2,3.198510982,312.6460023,2934.592722,-1,-1
1.71E+12,2,3.198413854,312.6554741,2934.594253,-1,-1
1.71E+12,2,3.198319503,312.6646755,2934.595889,-1,-1
1.71E+12,2,3.198227919,312.6736073,2934.597632,-1,-1
1.71E+12,2,3.19813909,312.6822708,2934.599482,-1,-1
1.71E+12,2,3.198052999,312.6906677,2934.60144,-1,-1
1.71E+12,2,3.197969625,312.6987998,2934.603504,-1,-1
1.71E+12,2,3.197888945,312.7066695,2934.605675,-1,-1
1.71E+12,2,3.197810931,312.7142795,2934.607952,-1,-1
1.71E+12,2,3.197735547,312.7216332,2934.610336,-1,-1
1.71E+12,2,3.197662758,312.7287341,2934.612824,-1,-1
1.71E+12,2,3.197592527,312.7355856,2934.615409,-1,-1
1.71E+12,2,3.197524817,312.7421917,2934.618086,-1,-1
1.71E+12,2,3.197459584,312.7485562,2934.620845,-1,-1
1.71E+12,2,3.197396787,312.7546834,2934.623678,-1,-1
1.71E+12,2,3.197336378,312.7605779,2934.626574,-1,-1
1.71E+12,2,3.197278311,312.7662441,2934.629523,-1,-1
1.71E+12,2,3.197222537,312.7716869,2934.632513,-1,-1
1.71E+12,2,3.197169003,312.7769113,2934.635532,-1,-1
1.71E+12,2,3.197117657,312.7819224,2934.638567,-1,-1
1.71E+12,2,3.197068441,312.7867259,2934.641608,-1,-1
1.71E+12,2,3.197021297,312.7913275,2934.644642,-1,-1
1.71E+12,2,3.196976163,312.7957331,2934.647657,-1,-1
1.71E+12,2,3.196932979,312.7999485,2934.650646,-1,-1
1.71E+12,2,3.196891684,312.8039798,2934.6536,-1,-1
1.71E+12,2,3.196852215,312.8078331,2934.656513,-1,-1
1.71E+12,2,3.196814509,312.8115145,2934.65938,-1,-1
1.71E+12,2,3.196778504,312.81503,2934.662197,-1,-1
1.71E+12,2,3.196744137,312.8183858,2934.66496,-1,-1
1.71E+12,2,3.196711344,312.8215882,2934.667667,-1,-1
1.71E+12,2,3.196680056,312.8246438,2934.670315,-1,-1
1.71E+12,2,3.196650208,312.8275589,2934.672904,-1,-1
1.71E+12,2,3.196621734,312.8303401,2934.675434,-1,-1
1.71E+12,2,3.196594569,312.8329937,2934.677904,-1,-1
1.71E+12,2,3.196568648,312.8355259,2934.680315,-1,-1
1.71E+12,2,3.196543906,312.8379431,2934.682668,-1,-1
1.71E+12,2,3.196520281,312.8402514,2934.684964,-1,-1
1.71E+12,2,3.196497711,312.8424569,2934.687202,-1,-1
1.71E+12,2,3.196476132,312.8445657,2934.689382,-1,-1
1.71E+12,2,3.196455481,312.8465839,2934.691505,-1,-1
1.71E+12,2,3.196435696,312.8485177,2934.693567,-1,-1
1.71E+12,2,3.196416712,312.8503735,2934.695567,-1,-1
1.71E+12,2,3.196398465,312.8521573,2934.697501,-1,-1
1.71E+12,2,3.196380894,312.8538753,2934.699367,-1,-1
1.71E+12,2,3.196363935,312.8555335,2934.701162,-1,-1
1.71E+12,2,3.19634753,312.8571378,2934.702883,-1,-1
1.71E+12,2,3.196331619,312.8586939,2934.704528,-1,-1
1.71E+12,2,3.196316142,312.8602077,2934.706094,-1,-1
1.71E+12,2,3.196301041,312.8616849,2934.707578,-1,-1
1.71E+12,2,3.196286257,312.8631313,2934.708979,-1,-1
1.71E+12,2,3.196271733,312.8645523,2934.710296,-1,-1
1.71E+12,2,3.196257411,312.8659537,2934.711527,-1,-1
1.71E+12,2,3.196243236,312.8673408,2934.712675,-1,-1
1.71E+12,2,3.196229153,312.868719,2934.71374,-1,-1
1.71E+12,2,3.196215111,312.8700933,2934.714726,-1,-1
1.71E+12,2,3.196201055,312.8714691,2934.715635,-1,-1
1.71E+12,2,3.196186936,312.872851,2934.716471,-1,-1
1.71E+12,2,3.196172717,312.8742429,2934.717239,-1,-1
1.71E+12,2,3.196158359,312.8756485,2934.717945,-1,-1
1.71E+12,2,3.196143824,312.8770714,2934.718595,-1,-1
1.71E+12,2,3.196129074,312.8785156,2934.719193,-1,-1
1.71E+12,2,3.196114074,312.8799842,2934.719742,-1,-1
1.71E+12,2,3.196098792,312.8814806,2934.72025,-1,-1
1.71E+12,2,3.196083188,312.8830085,2934.720723,-1,-1
1.71E+12,2,3.196067225,312.8845717,2934.721167,-1,-1
1.71E+12,2,3.196050867,312.8861736,2934.721589,-1,-1
1.71E+12,2,3.196034078,312.8878177,2934.721995,-1,-1
1.71E+12,2,3.196016821,312.8895078,2934.72239,-1,-1
1.71E+12,2,3.195999059,312.8912474,2934.722781,-1,-1
1.71E+12,2,3.19598076,312.8930398,2934.723173,-1,-1
1.71E+12,2,3.19596189,312.894888,2934.723571,-1,-1
1.71E+12,2,3.19594242,312.8967951,2934.723979,-1,-1
1.71E+12,2,3.195922319,312.8987641,2934.7244,-1,-1
1.71E+12,2,3.195901556,312.9007981,2934.724836,-1,-1
1.71E+12,2,3.195880098,312.9029002,2934.72529,-1,-1
1.71E+12,2,3.195857917,312.9050732,2934.725764,-1,-1
1.71E+12,2,3.195834984,312.90732,2934.726256,-1,-1
1.71E+12,2,3.195811273,312.9096431,2934.726764,-1,-1
1.71E+12,2,3.195786758,312.912045,2934.727287,-1,-1
1.71E+12,2,3.195761409,312.9145286,2934.727825,-1,-1
1.71E+12,2,3.195735202,312.9170966,2934.728376,-1,-1
1.71E+12,2,3.195708106,312.9197516,2934.728938,-1,-1
1.71E+12,2,3.195680096,312.9224963,2934.729509,-1,-1
1.71E+12,2,3.195651145,312.9253334,2934.730086,-1,-1
1.71E+12,2,3.195621226,312.9282654,2934.730667,-1,-1
1.71E+12,2,3.195590314,312.9312948,2934.731253,-1,-1
1.71E+12,2,3.195558387,312.9344239,2934.73184,-1,-1
1.71E+12,2,3.195525422,312.9376547,2934.73243,-1,-1
1.71E+12,2,3.195491395,312.9409899,2934.733022,-1,-1
1.71E+12,2,3.195456279,312.9444317,2934.733617,-1,-1
1.71E+12,2,3.195420053,312.9479826,2934.734218,-1,-1
1.71E+12,2,3.195382693,312.9516448,2934.734824,-1,-1
1.71E+12,2,3.195344175,312.9554205,2934.735436,-1,-1
1.71E+12,2,3.195304475,312.9593124,2934.736054,-1,-1
1.71E+12,2,3.195263571,312.9633224,2934.736681,-1,-1
1.71E+12,2,3.195221447,312.9674522,2934.737318,-1,-1
1.71E+12,2,3.195178086,312.9717034,2934.737967,-1,-1
1.71E+12,2,3.19513347,312.9760778,2934.738629,-1,-1
1.71E+12,2,3.195087581,312.9805772,2934.739307,-1,-1
1.71E+12,2,3.195040398,312.9852036,2934.740001,-1,-1
1.71E+12,2,3.194991901,312.989959,2934.740709,-1,-1
1.71E+12,2,3.194942072,312.9948453,2934.741432,-1,-1
1.71E+12,2,3.194890897,312.9998639,2934.742168,-1,-1
1.71E+12,2,3.194838362,313.0050159,2934.742914,-1,-1
1.71E+12,2,3.194784455,313.0103027,2934.74367,-1,-1
1.71E+12,2,3.194729162,313.0157257,2934.744431,-1,-1
1.71E+12,2,3.194672469,313.0212862,2934.745195,-1,-1
1.71E+12,2,3.194614364,313.0269855,2934.745956,-1,-1
1.71E+12,2,3.194554834,313.0328248,2934.74671,-1,-1
1.71E+12,2,3.194493868,313.0388051,2934.74745,-1,-1
1.71E+12,2,3.194431456,313.0449276,2934.748173,-1,-1
1.71E+12,2,3.194367589,313.0511931,2934.748872,-1,-1
1.71E+12,2,3.194302257,313.0576025,2934.749542,-1,-1
1.71E+12,2,3.194235454,313.0641566,2934.75018,-1,-1
1.71E+12,2,3.194167173,313.0708559,2934.750783,-1,-1
1.71E+12,2,3.194097404,313.0777016,2934.751346,-1,-1
1.71E+12,2,3.194026137,313.0846945,2934.751867,-1,-1
1.71E+12,2,3.193953366,313.0918354,2934.752342,-1,-1
1.71E+12,2,3.193879083,313.0991249,2934.752767,-1,-1
1.71E+12,2,3.193803288,313.1065631,2934.753139,-1,-1
1.71E+12,2,3.193725982,313.1141499,2934.753456,-1,-1
1.71E+12,2,3.193647168,313.1218851,2934.753713,-1,-1
1.71E+12,2,3.193566851,313.1297681,2934.753903,-1,-1
1.71E+12,2,3.193485035,313.1377987,2934.754021,-1,-1
1.71E+12,2,3.193401722,313.1459766,2934.754062,-1,-1
1.71E+12,2,3.193316919,313.154301,2934.754019,-1,-1
1.71E+12,2,3.193230633,313.1627714,2934.753887,-1,-1
1.71E+12,2,3.193142868,313.1713874,2934.753658,-1,-1
1.71E+12,2,3.193053634,313.180148,2934.753327,-1,-1
1.71E+12,2,3.192962944,313.189052,2934.752888,-1,-1
1.71E+12,2,3.192870809,313.1980983,2934.752337,-1,-1
1.71E+12,2,3.192777239,313.2072859,2934.751669,-1,-1
1.71E+12,2,3.192682247,313.2166135,2934.750878,-1,-1
1.71E+12,2,3.192585849,313.2260797,2934.749959,-1,-1
1.71E+12,2,3.192488066,313.2356822,2934.748905,-1,-1
1.71E+12,2,3.192388921,313.2454191,2934.747714,-1,-1
1.71E+12,2,3.192288433,313.2552882,2934.746381,-1,-1
1.71E+12,2,3.192186624,313.2652876,2934.744907,-1,-1
1.71E+12,2,3.192083516,313.275415,2934.743291,-1,-1
1.71E+12,2,3.191979133,313.285668,2934.741531,-1,-1
1.71E+12,2,3.191873502,313.2960442,2934.739629,-1,-1
1.71E+12,2,3.191766651,313.3065407,2934.737587,-1,-1
1.71E+12,2,3.191658606,313.3171551,2934.735408,-1,-1
1.71E+12,2,3.19154939,313.3278848,2934.733093,-1,-1
1.71E+12,2,3.191439032,313.3387274,2934.730642,-1,-1
1.71E+12,2,3.191327561,313.3496798,2934.728058,-1,-1
1.71E+12,2,3.191215012,313.3607386,2934.725344,-1,-1
1.71E+12,2,3.191101416,313.3719009,2934.722501,-1,-1
1.71E+12,2,3.190986808,313.3831632,2934.719531,-1,-1
1.71E+12,2,3.19087122,313.3945222,2934.716435,-1,-1
1.71E+12,2,3.19075469,313.4059744,2934.713215,-1,-1
1.71E+12,2,3.190637258,313.4175157,2934.709873,-1,-1
1.71E+12,2,3.190518967,313.4291421,2934.706409,-1,-1
1.71E+12,2,3.190399857,313.4408495,2934.702828,-1,-1
1.71E+12,2,3.19027997,313.4526338,2934.699131,-1,-1
1.71E+12,2,3.190159351,313.4644907,2934.695323,-1,-1
1.71E+12,2,3.190038041,313.476416,2934.691411,-1,-1
1.71E+12,2,3.189916085,313.4884055,2934.687403,-1,-1
1.71E+12,2,3.189793524,313.5004549,2934.683304,-1,-1
1.71E+12,2,3.189670406,313.5125598,2934.679124,-1,-1
1.71E+12,2,3.189546777,313.5247154,2934.674869,-1,-1
1.71E+12,2,3.189422689,313.5369167,2934.670549,-1,-1
1.71E+12,2,3.189298192,313.5491588,2934.666175,-1,-1
1.71E+12,2,3.189173334,313.561437,2934.661752,-1,-1
1.71E+12,2,3.189048164,313.5737465,2934.65729,-1,-1
1.71E+12,2,3.188922732,313.5860823,2934.652796,-1,-1
1.71E+12,2,3.188797089,313.5984395,2934.648278,-1,-1
1.71E+12,2,3.188671284,313.6108131,2934.643745,-1,-1
1.71E+12,2,3.188545368,313.6231983,2934.639201,-1,-1
1.71E+12,2,3.18841939,313.6355902,2934.634654,-1,-1
1.71E+12,2,3.188293401,313.6479838,2934.630111,-1,-1
1.71E+12,2,3.188167454,313.6603738,2934.625579,-1,-1
1.71E+12,2,3.188041601,313.6727552,2934.621064,-1,-1
1.71E+12,2,3.187915895,313.6851226,2934.616571,-1,-1
1.71E+12,2,3.187790388,313.6974712,2934.612107,-1,-1
1.71E+12,2,3.187665129,313.7097959,2934.607678,-1,-1
1.71E+12,2,3.18754017,313.7220916,2934.60329,-1,-1
1.71E+12,2,3.187415565,313.7343531,2934.598952,-1,-1
1.71E+12,2,3.187291362,313.7465756,2934.594669,-1,-1
1.71E+12,2,3.187167609,313.7587544,2934.590447,-1,-1
1.71E+12,2,3.187044358,313.7708844,2934.586291,-1,-1
1.71E+12,2,3.186921659,313.7829607,2934.582208,-1,-1
1.71E+12,2,3.186799565,313.794978,2934.578201,-1,-1
1.71E+12,2,3.186678127,313.8069312,2934.574272,-1,-1
1.71E+12,2,3.186557394,313.8188156,2934.570421,-1,-1
1.71E+12,2,3.186437411,313.8306268,2934.566651,-1,-1
1.71E+12,2,3.186318226,313.84236,2934.562962,-1,-1
1.71E+12,2,3.186199884,313.8540107,2934.559354,-1,-1
1.71E+12,2,3.186082424,313.8655752,2934.555832,-1,-1
1.71E+12,2,3.185965887,313.8770492,2934.552398,-1,-1
1.71E+12,2,3.185850318,313.8884285,2934.549053,-1,-1
1.71E+12,2,3.18573576,313.8997088,2934.545798,-1,-1
1.71E+12,2,3.185622252,313.9108862,2934.542634,-1,-1
1.71E+12,2,3.185509836,313.9219566,2934.539559,-1,-1
1.71E+12,2,3.18539855,313.9329163,2934.536576,-1,-1
1.71E+12,2,3.185288431,313.9437614,2934.533686,-1,-1
1.71E+12,2,3.185179517,313.9544884,2934.530889,-1,-1
1.71E+12,2,3.185071846,313.9650934,2934.528188,-1,-1
1.71E+12,2,3.184965453,313.9755731,2934.525583,-1,-1
1.71E+12,2,3.184860376,313.9859235,2934.523073,-1,-1
1.71E+12,2,3.184756647,313.9961416,2934.520661,-1,-1
1.71E+12,2,3.184654299,314.0062242,2934.518348,-1,-1
1.71E+12,2,3.18455336,314.0161684,2934.516136,-1,-1
1.71E+12,2,3.184453862,314.025971,2934.514026,-1,-1
1.71E+12,2,3.184355834,314.0356293,2934.512017,-1,-1
1.71E+12,2,3.184259305,314.0451402,2934.510112,-1,-1
1.71E+12,2,3.184164308,314.0545007,2934.508309,-1,-1
1.71E+12,2,3.184070872,314.0637076,2934.506609,-1,-1
1.71E+12,2,3.183979023,314.0727586,2934.50501,-1,-1
1.71E+12,2,3.183888782,314.0816515,2934.503507,-1,-1
1.71E+12,2,3.183800171,314.0903842,2934.502103,-1,-1
1.71E+12,2,3.183713205,314.098955,2934.500796,-1,-1
1.71E+12,2,3.183627899,314.1073626,2934.49959,-1,-1
1.71E+12,2,3.183544267,314.1156055,2934.498488,-1,-1
1.71E+12,2,3.183462321,314.1236826,2934.49749,-1,-1
1.71E+12,2,3.183382074,314.1315925,2934.496599,-1,-1
1.71E+12,2,3.183303541,314.1393338,2934.495817,-1,-1
1.71E+12,2,3.183226731,314.1469056,2934.495146,-1,-1
1.71E+12,2,3.183151652,314.1543069,2934.494587,-1,-1
1.71E+12,2,3.183078312,314.1615371,2934.494143,-1,-1
1.71E+12,2,3.183006716,314.1685956,2934.493813,-1,-1
1.71E+12,2,3.182936868,314.1754821,2934.493599,-1,-1
1.71E+12,2,3.182868774,314.1821959,2934.493501,-1,-1
1.71E+12,2,3.182802433,314.188737,2934.493516,-1,-1
1.71E+12,2,3.182737845,314.1951055,2934.493643,-1,-1
1.71E+12,2,3.182675008,314.2013016,2934.493874,-1,-1
1.71E+12,2,3.182613918,314.2073257,2934.494208,-1,-1
1.71E+12,2,3.182554567,314.2131784,2934.49464,-1,-1
1.71E+12,2,3.182496947,314.2188606,2934.495166,-1,-1
1.71E+12,2,3.182441055,314.2243726,2934.495782,-1,-1
1.71E+12,2,3.182386886,314.2297149,2934.496485,-1,-1
1.71E+12,2,3.182334432,314.2348881,2934.497274,-1,-1
1.71E+12,2,3.182283684,314.2398934,2934.498145,-1,-1
1.71E+12,2,3.182234626,314.2447319,2934.499094,-1,-1
1.71E+12,2,3.182187246,314.2494053,2934.500116,-1,-1
1.71E+12,2,3.182141526,314.2539149,2934.501212,-1,-1
1.71E+12,2,3.182097449,314.2582626,2934.502379,-1,-1
1.71E+12,2,3.182054995,314.2624504,2934.503616,-1,-1
1.71E+12,2,3.182014145,314.26648,2934.504924,-1,-1
1.71E+12,2,3.181974875,314.270354,2934.506305,-1,-1
1.71E+12,2,3.181937163,314.2740742,2934.507758,-1,-1
1.71E+12,2,3.18190099,314.2776427,2934.509285,-1,-1
1.71E+12,2,3.181866333,314.2810618,2934.510887,-1,-1
1.71E+12,2,3.181833163,314.2843343,2934.512565,-1,-1
1.71E+12,2,3.181801452,314.2874629,2934.514321,-1,-1
1.71E+12,2,3.181771172,314.2904504,2934.516157,-1,-1
1.71E+12,2,3.181742293,314.2932997,2934.518073,-1,-1
1.71E+12,2,3.181714789,314.2960134,2934.520071,-1,-1
1.71E+12,2,3.181688628,314.2985946,2934.52215,-1,-1
1.71E+12,2,3.181663779,314.3010465,2934.524311,-1,-1
1.71E+12,2,3.181640211,314.3033721,2934.526552,-1,-1
1.71E+12,2,3.181617888,314.3055748,2934.528871,-1,-1
1.71E+12,2,3.181596772,314.3076584,2934.531265,-1,-1
1.71E+12,2,3.181576828,314.3096264,2934.533733,-1,-1
1.71E+12,2,3.181558019,314.3114825,2934.536272,-1,-1
1.71E+12,2,3.181540309,314.3132302,2934.538879,-1,-1
1.71E+12,2,3.18152366,314.3148732,2934.541551,-1,-1
1.71E+12,2,3.181508035,314.3164152,2934.544284,-1,-1
1.71E+12,2,3.181493396,314.3178598,2934.547072,-1,-1
1.71E+12,2,3.181479703,314.3192112,2934.549913,-1,-1
1.71E+12,2,3.181466914,314.3204734,2934.552803,-1,-1
1.71E+12,2,3.181454984,314.3216508,2934.555737,-1,-1
1.71E+12,2,3.18144387,314.3227477,2934.558711,-1,-1
1.71E+12,2,3.181433533,314.3237679,2934.561719,-1,-1
1.71E+12,2,3.181423931,314.3247155,2934.564756,-1,-1
1.71E+12,2,3.181415021,314.325595,2934.567819,-1,-1
1.71E+12,2,3.181406762,314.3264102,2934.570903,-1,-1
1.71E+12,2,3.181399115,314.327165,2934.574004,-1,-1
1.71E+12,2,3.181392041,314.3278633,2934.57712,-1,-1
1.71E+12,2,3.1813855,314.3285089,2934.580248,-1,-1
1.71E+12,2,3.181379453,314.3291059,2934.583386,-1,-1
1.71E+12,2,3.181373856,314.3296585,2934.586534,-1,-1
1.71E+12,2,3.181368665,314.330171,2934.589691,-1,-1
1.71E+12,2,3.181363836,314.3306478,2934.592859,-1,-1
1.71E+12,2,3.181359328,314.331093,2934.596036,-1,-1
1.71E+12,2,3.181355097,314.3315108,2934.599224,-1,-1
1.71E+12,2,3.181351102,314.3319053,2934.602425,-1,-1
1.71E+12,2,3.181347298,314.3322811,2934.605641,-1,-1
1.71E+12,2,3.181343642,314.3326422,2934.608872,-1,-1
1.71E+12,2,3.181340096,314.3329926,2934.612118,-1,-1
1.71E+12,2,3.181336622,314.3333358,2934.615377,-1,-1
1.71E+12,2,3.181333183,314.3336756,2934.618646,-1,-1
1.71E+12,2,3.181329741,314.3340158,2934.621922,-1,-1
1.71E+12,2,3.181326257,314.3343601,2934.625202,-1,-1
1.71E+12,2,3.18132269,314.3347127,2934.628479,-1,-1
1.71E+12,2,3.181319002,314.3350773,2934.631747,-1,-1
1.71E+12,2,3.181315153,314.3354578,2934.635001,-1,-1
1.71E+12,2,3.181311105,314.3358581,2934.638235,-1,-1
1.71E+12,2,3.181306821,314.3362816,2934.641441,-1,-1
1.71E+12,2,3.181302266,314.336732,2934.64461,-1,-1
1.71E+12,2,3.181297404,314.3372127,2934.647736,-1,-1
1.71E+12,2,3.181292201,314.3377272,2934.650811,-1,-1
1.71E+12,2,3.181286624,314.3382786,2934.653827,-1,-1
1.71E+12,2,3.181280642,314.3388701,2934.656777,-1,-1
1.71E+12,2,3.181274226,314.3395046,2934.659653,-1,-1
1.71E+12,2,3.181267342,314.3401852,2934.662446,-1,-1
1.71E+12,2,3.181259963,314.3409149,2934.665148,-1,-1
1.71E+12,2,3.181252059,314.3416965,2934.667752,-1,-1
1.71E+12,2,3.181243604,314.3425325,2934.670251,-1,-1
1.71E+12,2,3.181234575,314.3434253,2934.672639,-1,-1
1.71E+12,2,3.181224947,314.3443773,2934.67491,-1,-1
1.71E+12,2,3.181214699,314.3453906,2934.677058,-1,-1
1.71E+12,2,3.181203805,314.3464678,2934.679079,-1,-1
1.71E+12,2,3.181192243,314.347611,2934.680969,-1,-1
1.71E+12,2,3.181179995,314.3488221,2934.682724,-1,-1
1.71E+12,2,3.181167041,314.350103,2934.68434,-1,-1
1.71E+12,2,3.181153362,314.3514555,2934.685817,-1,-1
1.71E+12,2,3.18113894,314.3528816,2934.687152,-1,-1
1.71E+12,2,3.181123757,314.3543829,2934.688343,-1,-1
1.71E+12,2,3.181107797,314.355961,2934.689391,-1,-1
1.71E+12,2,3.181091047,314.3576172,2934.690294,-1,-1
1.71E+12,2,3.181073494,314.3593528,2934.691053,-1,-1
1.71E+12,2,3.181055127,314.361169,2934.691668,-1,-1
1.71E+12,2,3.181035932,314.363067,2934.692138,-1,-1
1.71E+12,2,3.181015897,314.3650481,2934.692462,-1,-1
1.71E+12,2,3.180995014,314.3671131,2934.692639,-1,-1
1.71E+12,2,3.180973275,314.3692627,2934.692667,-1,-1
1.71E+12,2,3.180950675,314.3714974,2934.692543,-1,-1
1.71E+12,2,3.18092721,314.3738178,2934.692262,-1,-1
1.71E+12,2,3.180902871,314.3762246,2934.691822,-1,-1
1.71E+12,2,3.180877654,314.3787182,2934.691217,-1,-1
1.71E+12,2,3.180851553,314.3812993,2934.690449,-1,-1
1.71E+12,2,3.180824561,314.3839686,2934.689518,-1,-1
1.71E+12,2,3.180796677,314.3867261,2934.688427,-1,-1
1.71E+12,2,3.180767901,314.3895718,2934.687177,-1,-1
1.71E+12,2,3.180738234,314.3925057,2934.685773,-1,-1
1.71E+12,2,3.180707676,314.3955278,2934.684223,-1,-1
1.71E+12,2,3.18067623,314.3986377,2934.682532,-1,-1
1.71E+12,2,3.180643898,314.4018352,2934.68071,-1,-1
1.71E+12,2,3.18061068,314.4051205,2934.678767,-1,-1
1.71E+12,2,3.180576578,314.4084933,2934.676711,-1,-1
1.71E+12,2,3.180541595,314.4119532,2934.674555,-1,-1
1.71E+12,2,3.180505734,314.4155,2934.672309,-1,-1
1.71E+12,2,3.180469001,314.4191332,2934.669987,-1,-1
1.71E+12,2,3.180431399,314.4228524,2934.667603,-1,-1
1.71E+12,2,3.180392931,314.4266573,2934.66517,-1,-1
1.71E+12,2,3.180353603,314.4305473,2934.662701,-1,-1
1.71E+12,2,3.180313423,314.4345217,2934.660206,-1,-1
1.71E+12,2,3.180272402,314.4385794,2934.657699,-1,-1
1.71E+12,2,3.180230549,314.4427194,2934.655188,-1,-1
1.71E+12,2,3.180187875,314.4469408,2934.652683,-1,-1
1.71E+12,2,3.180144387,314.4512428,2934.650193,-1,-1
1.71E+12,2,3.180100093,314.4556245,2934.647725,-1,-1
1.71E+12,2,3.180055006,314.4600849,2934.645287,-1,-1
1.71E+12,2,3.180009139,314.4646225,2934.642888,-1,-1
1.71E+12,2,3.179962502,314.4692364,2934.640537,-1,-1
1.71E+12,2,3.179915107,314.4739253,2934.638239,-1,-1
1.71E+12,2,3.17986697,314.4786878,2934.636001,-1,-1
1.71E+12,2,3.179818101,314.4835228,2934.63383,-1,-1
1.71E+12,2,3.179768514,314.4884291,2934.631734,-1,-1
1.71E+12,2,3.179718219,314.4934054,2934.629717,-1,-1
1.71E+12,2,3.179667228,314.4984508,2934.627788,-1,-1
1.71E+12,2,3.179615554,314.5035638,2934.625951,-1,-1
1.71E+12,2,3.179563215,314.5087428,2934.624211,-1,-1
1.71E+12,2,3.179510227,314.5139861,2934.622572,-1,-1
1.71E+12,2,3.179456603,314.5192926,2934.621039,-1,-1
1.71E+12,2,3.179402357,314.5246606,2934.619619,-1,-1
1.71E+12,2,3.179347503,314.530089,2934.618317,-1,-1
1.71E+12,2,3.179292054,314.5355764,2934.617137,-1,-1
1.71E+12,2,3.179236022,314.5411217,2934.616083,-1,-1
1.71E+12,2,3.179179419,314.5467236,2934.61516,-1,-1
1.71E+12,2,3.179122254,314.5523813,2934.614371,-1,-1
1.71E+12,2,3.179064539,314.5580937,2934.613719,-1,-1
1.71E+12,2,3.179006285,314.5638595,2934.613208,-1,-1
1.71E+12,2,3.178947507,314.5696772,2934.612843,-1,-1
1.71E+12,2,3.178888222,314.5755454,2934.612624,-1,-1
1.71E+12,2,3.178828443,314.5814627,2934.612555,-1,-1
1.71E+12,2,3.178768183,314.5874277,2934.612634,-1,-1
1.71E+12,2,3.178707458,314.593439,2934.612864,-1,-1
1.71E+12,2,3.178646282,314.599495,2934.613242,-1,-1
1.71E+12,2,3.17858467,314.6055945,2934.613764,-1,-1
1.71E+12,2,3.178522635,314.611736,2934.614425,-1,-1
1.71E+12,2,3.178460191,314.6179181,2934.61522,-1,-1
1.71E+12,2,3.178397349,314.6241399,2934.616143,-1,-1
1.71E+12,2,3.178334122,314.6303999,2934.617184,-1,-1
1.71E+12,2,3.178270526,314.6366968,2934.618336,-1,-1
1.71E+12,2,3.178206573,314.6430291,2934.619586,-1,-1
1.71E+12,2,3.17814228,314.6493954,2934.620922,-1,-1
1.71E+12,2,3.17807766,314.6557942,2934.622332,-1,-1
1.71E+12,2,3.178012728,314.6622241,2934.623802,-1,-1
1.71E+12,2,3.177947497,314.6686838,2934.625322,-1,-1
1.71E+12,2,3.177881981,314.675172,2934.626882,-1,-1
1.71E+12,2,3.177816192,314.6816875,2934.628472,-1,-1
1.71E+12,2,3.177750142,314.688229,2934.630087,-1,-1
1.71E+12,2,3.177683843,314.6947954,2934.63172,-1,-1
1.71E+12,2,3.177617308,314.7013854,2934.633367,-1,-1
1.71E+12,2,3.177550553,314.7079975,2934.635025,-1,-1
1.71E+12,2,3.177483587,314.7146306,2934.636691,-1,-1
1.71E+12,2,3.177416423,314.7212835,2934.638362,-1,-1
1.71E+12,2,3.177349073,314.7279552,2934.640035,-1,-1
1.71E+12,2,3.177281546,314.7346446,2934.641709,-1,-1
1.71E+12,2,3.177213858,314.7413503,2934.643382,-1,-1
1.71E+12,2,3.17714602,314.7480709,2934.645053,-1,-1
1.71E+12,2,3.177078048,314.7548052,2934.646719,-1,-1
1.71E+12,2,3.177009952,314.7615519,2934.648378,-1,-1
1.71E+12,2,3.176941745,314.76831,2934.650026,-1,-1
1.71E+12,2,3.176873434,314.7750786,2934.651661,-1,-1
1.71E+12,2,3.176805031,314.7818565,2934.653278,-1,-1
1.71E+12,2,3.176736544,314.788643,2934.654874,-1,-1
1.71E+12,2,3.176667982,314.7954373,2934.656444,-1,-1
1.71E+12,2,3.176599352,314.8022385,2934.657983,-1,-1
1.71E+12,2,3.176530667,314.8090455,2934.659487,-1,-1
1.71E+12,2,3.176461936,314.8158572,2934.660952,-1,-1
1.71E+12,2,3.176393172,314.8226725,2934.66237,-1,-1
1.71E+12,2,3.176324381,314.8294907,2934.663738,-1,-1
1.71E+12,2,3.176255574,314.8363107,2934.665052,-1,-1
1.71E+12,2,3.176186755,314.8431323,2934.66631,-1,-1
1.71E+12,2,3.176117926,314.849955,2934.667511,-1,-1
1.71E+12,2,3.176049095,314.8567783,2934.668653,-1,-1
1.71E+12,2,3.175980272,314.863601,2934.669736,-1,-1
1.71E+12,2,3.175911468,314.8704221,2934.670761,-1,-1
1.71E+12,2,3.175842694,314.8772405,2934.671728,-1,-1
1.71E+12,2,3.17577396,314.8840551,2934.672637,-1,-1
1.71E+12,2,3.175705277,314.890865,2934.673492,-1,-1
1.71E+12,2,3.175636657,314.8976689,2934.674295,-1,-1
1.71E+12,2,3.175568109,314.9044658,2934.67505,-1,-1
1.71E+12,2,3.175499645,314.9112548,2934.675762,-1,-1
1.71E+12,2,3.175431271,314.9180351,2934.676436,-1,-1
1.71E+12,2,3.175362998,314.9248056,2934.677079,-1,-1
1.71E+12,2,3.175294833,314.9315657,2934.677696,-1,-1
1.71E+12,2,3.175226786,314.9383142,2934.678295,-1,-1
1.71E+12,2,3.17515887,314.9450501,2934.678885,-1,-1
1.71E+12,2,3.175091095,314.9517722,2934.679474,-1,-1
1.71E+12,2,3.175023473,314.9584794,2934.68007,-1,-1
1.71E+12,2,3.174956016,314.9651706,2934.680682,-1,-1
1.71E+12,2,3.174888735,314.9718445,2934.681322,-1,-1
1.71E+12,2,3.174821646,314.9784996,2934.681998,-1,-1
1.71E+12,2,3.174754765,314.9851343,2934.682719,-1,-1
1.71E+12,2,3.174688103,314.9917475,2934.683495,-1,-1
1.71E+12,2,3.174621668,314.9983385,2934.684336,-1,-1
1.71E+12,2,3.174555469,315.0049062,2934.685248,-1,-1
1.71E+12,2,3.174489516,315.0114498,2934.686239,-1,-1
1.71E+12,2,3.174423821,315.017968,2934.687315,-1,-1
1.71E+12,2,3.174358395,315.0244597,2934.688481,-1,-1
1.71E+12,2,3.174293251,315.0309238,2934.689741,-1,-1
1.71E+12,2,3.1742284,315.0373589,2934.691096,-1,-1
1.71E+12,2,3.174163855,315.0437638,2934.692549,-1,-1
1.71E+12,2,3.17409963,315.0501373,2934.694097,-1,-1
1.71E+12,2,3.174035737,315.056478,2934.69574,-1,-1
1.71E+12,2,3.173972192,315.0627844,2934.697477,-1,-1
1.71E+12,2,3.173909007,315.0690552,2934.699309,-1,-1
1.71E+12,2,3.173846193,315.0752895,2934.701235,-1,-1
1.71E+12,2,3.173783762,315.0814859,2934.703254,-1,-1
1.71E+12,2,3.17372173,315.0876429,2934.705368,-1,-1
1.71E+12,2,3.173660112,315.093759,2934.70758,-1,-1
1.71E+12,2,3.173598925,315.0998325,2934.709891,-1,-1
1.71E+12,2,3.173538183,315.105862,2934.712302,-1,-1
1.71E+12,2,3.173477899,315.1118462,2934.714817,-1,-1
1.71E+12,2,3.173418092,315.1177833,2934.71744,-1,-1
1.71E+12,2,3.173358774,315.1236719,2934.720173,-1,-1
1.71E+12,2,3.173299958,315.1295109,2934.723021,-1,-1
1.71E+12,2,3.173241658,315.1352988,2934.725986,-1,-1
1.71E+12,2,3.17318389,315.1410341,2934.729072,-1,-1
1.71E+12,2,3.173126669,315.1467153,2934.732279,-1,-1
1.71E+12,2,3.173070003,315.1523414,2934.735608,-1,-1
1.71E+12,2,3.173013906,315.1579113,2934.739059,-1,-1
1.71E+12,2,3.172958388,315.1634237,2934.742631,-1,-1
1.71E+12,2,3.172903461,315.1688776,2934.746324,-1,-1
1.71E+12,2,3.172849137,315.1742718,2934.750136,-1,-1
1.71E+12,2,3.17279543,315.1796049,2934.754067,-1,-1
1.71E+12,2,3.172742353,315.1848755,2934.758113,-1,-1
1.71E+12,2,3.172689921,315.1900823,2934.762273,-1,-1
1.71E+12,2,3.172638145,315.1952239,2934.766545,-1,-1
1.71E+12,2,3.172587037,315.2002993,2934.770925,-1,-1
1.71E+12,2,3.172536613,315.205307,2934.77541,-1,-1
1.71E+12,2,3.172486885,315.2102456,2934.779994,-1,-1
1.71E+12,2,3.172437865,315.215114,2934.784671,-1,-1
1.71E+12,2,3.172389561,315.2199114,2934.789437,-1,-1
1.71E+12,2,3.172341985,315.2246368,2934.794284,-1,-1
1.71E+12,2,3.172295144,315.2292891,2934.799206,-1,-1
1.71E+12,2,3.172249048,315.2338674,2934.804191,-1,-1
1.71E+12,2,3.17220371,315.2383706,2934.809232,-1,-1
1.71E+12,2,3.172159143,315.2427974,2934.814321,-1,-1
1.71E+12,2,3.17211536,315.2471463,2934.819448,-1,-1
1.71E+12,2,3.172072373,315.2514163,2934.824604,-1,-1
1.71E+12,2,3.17203019,315.2556065,2934.829782,-1,-1
1.71E+12,2,3.171988815,315.2597164,2934.834971,-1,-1
1.71E+12,2,3.171948256,315.2637454,2934.840162,-1,-1
1.71E+12,2,3.171908523,315.2676924,2934.845345,-1,-1
1.71E+12,2,3.171869621,315.271557,2934.850509,-1,-1
1.71E+12,2,3.171831551,315.275339,2934.855645,-1,-1
1.71E+12,2,3.171794316,315.279038,2934.860741,-1,-1
1.71E+12,2,3.17175792,315.2826538,2934.865785,-1,-1
1.71E+12,2,3.171722369,315.2861857,2934.870765,-1,-1
1.71E+12,2,3.171687672,315.2896328,2934.875666,-1,-1
1.71E+12,2,3.171653835,315.2929944,2934.880475,-1,-1
1.71E+12,2,3.171620865,315.2962701,2934.885177,-1,-1
1.71E+12,2,3.171588766,315.2994593,2934.889759,-1,-1
1.71E+12,2,3.17155754,315.3025617,2934.894209,-1,-1
1.71E+12,2,3.171527193,315.3055769,2934.898513,-1,-1
1.71E+12,2,3.171497727,315.3085045,2934.902662,-1,-1
1.71E+12,2,3.171469143,315.3113446,2934.906643,-1,-1
1.71E+12,2,3.171441442,315.314097,2934.910445,-1,-1
1.71E+12,2,3.171414622,315.316762,2934.914059,-1,-1
1.71E+12,2,3.17138868,315.3193396,2934.917475,-1,-1
1.71E+12,2,3.171363615,315.3218302,2934.920686,-1,-1
1.71E+12,2,3.171339422,315.3242342,2934.923684,-1,-1
1.71E+12,2,3.171316099,315.3265518,2934.926461,-1,-1
1.71E+12,2,3.171293644,315.3287831,2934.929009,-1,-1
1.71E+12,2,3.171272057,315.3309282,2934.931321,-1,-1
1.71E+12,2,3.171251336,315.3329873,2934.93339,-1,-1
1.71E+12,2,3.17123148,315.3349605,2934.935212,-1,-1
1.71E+12,2,3.171212483,315.3368483,2934.936781,-1,-1
1.71E+12,2,3.17119434,315.3386513,2934.938094,-1,-1
1.71E+12,2,3.171177042,315.3403702,2934.939147,-1,-1
1.71E+12,2,3.171160583,315.3420059,2934.939937,-1,-1
1.71E+12,2,3.171144954,315.3435591,2934.94046,-1,-1
1.71E+12,2,3.17113015,315.3450303,2934.940714,-1,-1
1.71E+12,2,3.171116161,315.3464206,2934.940696,-1,-1
1.71E+12,2,3.171102979,315.3477305,2934.940402,-1,-1
1.71E+12,2,3.171090597,315.3489611,2934.939829,-1,-1
1.71E+12,2,3.171079005,315.3501131,2934.938974,-1,-1
1.71E+12,2,3.171068197,315.3511873,2934.937835,-1,-1
1.71E+12,2,3.171058162,315.3521846,2934.936412,-1,-1
1.71E+12,2,3.171048894,315.3531057,2934.934705,-1,-1
1.71E+12,2,3.171040381,315.3539518,2934.932716,-1,-1
1.71E+12,2,3.171032613,315.3547238,2934.930447,-1,-1
1.71E+12,2,3.171025579,315.3554229,2934.927906,-1,-1
1.71E+12,2,3.171019268,315.35605,2934.925098,-1,-1
1.71E+12,2,3.171013671,315.3566063,2934.922031,-1,-1
1.71E+12,2,3.171008778,315.3570926,2934.918714,-1,-1
1.71E+12,2,3.171004579,315.3575098,2934.915156,-1,-1
1.71E+12,2,3.171001067,315.3578588,2934.911366,-1,-1
1.71E+12,2,3.17099823,315.3581407,2934.907352,-1,-1
1.71E+12,2,3.170996056,315.3583567,2934.903123,-1,-1
1.71E+12,2,3.170994533,315.358508,2934.898687,-1,-1
1.71E+12,2,3.17099365,315.3585957,2934.894049,-1,-1
1.71E+12,2,3.170993391,315.3586213,2934.889213,-1,-1
1.71E+12,2,3.170993746,315.3585859,2934.884184,-1,-1
1.71E+12,2,3.170994704,315.3584906,2934.878963,-1,-1
1.71E+12,2,3.170996253,315.3583364,2934.873552,-1,-1
1.71E+12,2,3.170998382,315.3581247,2934.867951,-1,-1
1.71E+12,2,3.171001078,315.3578566,2934.862163,-1,-1
1.71E+12,2,3.171004328,315.3575334,2934.856188,-1,-1
1.71E+12,2,3.171008117,315.3571566,2934.850029,-1,-1
1.71E+12,2,3.171012432,315.3567275,2934.843691,-1,-1
1.71E+12,2,3.171017259,315.3562476,2934.837176,-1,-1
1.71E+12,2,3.171022585,315.3557179,2934.830489,-1,-1
1.71E+12,2,3.171028398,315.35514,2934.823637,-1,-1
1.71E+12,2,3.17103468,315.3545153,2934.816627,-1,-1
1.71E+12,2,3.171041416,315.3538455,2934.809468,-1,-1
1.71E+12,2,3.171048594,315.3531318,2934.80217,-1,-1
1.71E+12,2,3.171056203,315.3523752,2934.794743,-1,-1
1.71E+12,2,3.171064228,315.3515772,2934.787198,-1,-1
1.71E+12,2,3.171072657,315.3507392,2934.779546,-1,-1
1.71E+12,2,3.171081474,315.3498625,2934.771798,-1,-1
1.71E+12,2,3.171090667,315.3489484,2934.763969,-1,-1
1.71E+12,2,3.171100222,315.3479983,2934.75607,-1,-1
1.71E+12,2,3.171110126,315.3470135,2934.748114,-1,-1
1.71E+12,2,3.171120366,315.3459953,2934.740111,-1,-1
1.71E+12,2,3.171130929,315.344945,2934.732072,-1,-1
1.71E+12,2,3.171141799,315.3438642,2934.72401,-1,-1
1.71E+12,2,3.171152961,315.3427543,2934.715937,-1,-1
1.71E+12,2,3.171164398,315.3416171,2934.707865,-1,-1
1.71E+12,2,3.171176093,315.3404542,2934.699809,-1,-1
1.71E+12,2,3.171188033,315.339267,2934.691779,-1,-1
1.71E+12,2,3.171200205,315.3380567,2934.683788,-1,-1
1.71E+12,2,3.171212599,315.3368244,2934.675846,-1,-1
1.71E+12,2,3.171225201,315.3355713,2934.667967,-1,-1
1.71E+12,2,3.171237998,315.3342989,2934.660162,-1,-1
1.71E+12,2,3.171250979,315.3330082,2934.652443,-1,-1
1.71E+12,2,3.171264133,315.3317002,2934.644823,-1,-1
1.71E+12,2,3.17127745,315.330376,2934.637311,-1,-1
1.71E+12,2,3.171290919,315.3290369,2934.629917,-1,-1
1.71E+12,2,3.171304525,315.3276839,2934.622651,-1,-1
1.71E+12,2,3.171318258,315.3263184,2934.615522,-1,-1
1.71E+12,2,3.171332109,315.3249412,2934.608539,-1,-1
1.71E+12,2,3.171346068,315.3235532,2934.601705,-1,-1
1.71E+12,2,3.171360123,315.3221557,2934.595024,-1,-1
1.71E+12,2,3.171374263,315.3207498,2934.588497,-1,-1
1.71E+12,2,3.171388478,315.3193363,2934.582128,-1,-1
1.71E+12,2,3.171402761,315.3179162,2934.575919,-1,-1
1.71E+12,2,3.171417102,315.3164902,2934.569873,-1,-1
1.71E+12,2,3.171431495,315.3150591,2934.563992,-1,-1
1.71E+12,2,3.171445929,315.3136239,2934.558282,-1,-1
1.71E+12,2,3.171460392,315.3121859,2934.55275,-1,-1
1.71E+12,2,3.171474874,315.3107459,2934.547405,-1,-1
1.71E+12,2,3.171489365,315.3093051,2934.542255,-1,-1
1.71E+12,2,3.171503854,315.3078645,2934.537312,-1,-1
1.71E+12,2,3.171518333,315.3064248,2934.532584,-1,-1
1.71E+12,2,3.171532797,315.3049867,2934.52808,-1,-1
1.71E+12,2,3.171547237,315.303551,2934.523811,-1,-1
1.71E+12,2,3.171561644,315.3021186,2934.519782,-1,-1
1.71E+12,2,3.171576011,315.3006901,2934.516,-1,-1
1.71E+12,2,3.171590327,315.2992667,2934.512469,-1,-1
1.71E+12,2,3.171604585,315.2978491,2934.509192,-1,-1
1.71E+12,2,3.171618776,315.2964382,2934.506172,-1,-1
1.71E+12,2,3.171632895,315.2950344,2934.50341,-1,-1
1.71E+12,2,3.171646934,315.2936386,2934.500906,-1,-1
1.71E+12,2,3.171660889,315.2922512,2934.49866,-1,-1
1.71E+12,2,3.171674753,315.2908727,2934.49667,-1,-1
1.71E+12,2,3.171688523,315.2895038,2934.494935,-1,-1
1.71E+12,2,3.171702192,315.2881447,2934.493452,-1,-1
1.71E+12,2,3.171715756,315.2867962,2934.492218,-1,-1
1.71E+12,2,3.171729207,315.2854589,2934.491231,-1,-1
1.71E+12,2,3.171742541,315.2841332,2934.490488,-1,-1
1.71E+12,2,3.171755755,315.2828195,2934.489987,-1,-1
1.71E+12,2,3.171768847,315.2815179,2934.489726,-1,-1
1.71E+12,2,3.171781815,315.2802287,2934.489703,-1,-1
1.71E+12,2,3.17179466,315.2789517,2934.489916,-1,-1
1.71E+12,2,3.171807383,315.2776869,2934.490363,-1,-1
1.71E+12,2,3.171819979,315.2764346,2934.491041,-1,-1
1.71E+12,2,3.171832445,315.2751953,2934.491947,-1,-1
1.71E+12,2,3.171844777,315.2739693,2934.493075,-1,-1
1.71E+12,2,3.171856973,315.2727569,2934.494419,-1,-1
1.71E+12,2,3.171869031,315.2715582,2934.495968,-1,-1
1.71E+12,2,3.171880949,315.2703734,2934.497709,-1,-1
1.71E+12,2,3.171892726,315.2692027,2934.499628,-1,-1
1.71E+12,2,3.171904361,315.2680461,2934.501713,-1,-1
1.71E+12,2,3.171915852,315.2669037,2934.503953,-1,-1
1.71E+12,2,3.171927199,315.2657758,2934.506335,-1,-1
1.71E+12,2,3.171938401,315.2646622,2934.508848,-1,-1
1.71E+12,2,3.17194946,315.2635629,2934.511479,-1,-1
1.71E+12,2,3.171960375,315.262478,2934.514219,-1,-1
1.71E+12,2,3.171971145,315.2614073,2934.517057,-1,-1
1.71E+12,2,3.171981774,315.2603508,2934.519984,-1,-1
1.71E+12,2,3.171992262,315.2593083,2934.522991,-1,-1
1.71E+12,2,3.17200261,315.2582797,2934.526069,-1,-1
1.71E+12,2,3.172012823,315.2572645,2934.529209,-1,-1
1.71E+12,2,3.172022903,315.2562626,2934.532403,-1,-1
1.71E+12,2,3.172032854,315.2552735,2934.535641,-1,-1
1.71E+12,2,3.172042678,315.2542971,2934.538914,-1,-1
1.71E+12,2,3.172052376,315.253333,2934.542213,-1,-1
1.71E+12,2,3.172061952,315.2523813,2934.545529,-1,-1
1.71E+12,2,3.17207141,315.2514413,2934.548851,-1,-1
1.71E+12,2,3.172080751,315.2505128,2934.552171,-1,-1
1.71E+12,2,3.172089975,315.249596,2934.555482,-1,-1
1.71E+12,2,3.172099082,315.2486908,2934.558775,-1,-1
1.71E+12,2,3.172108075,315.2477971,2934.562042,-1,-1
1.71E+12,2,3.172116955,315.2469145,2934.565278,-1,-1
1.71E+12,2,3.172125726,315.2460428,2934.568476,-1,-1
1.71E+12,2,3.172134392,315.2451815,2934.571631,-1,-1
1.71E+12,2,3.172142958,315.2443302,2934.574738,-1,-1
1.71E+12,2,3.172151428,315.2434884,2934.577795,-1,-1
1.71E+12,2,3.172159808,315.2426555,2934.580801,-1,-1
1.71E+12,2,3.172168104,315.2418311,2934.583755,-1,-1
1.71E+12,2,3.172176317,315.2410149,2934.586659,-1,-1
1.71E+12,2,3.172184452,315.2402064,2934.589516,-1,-1
1.71E+12,2,3.172192513,315.2394053,2934.592329,-1,-1
1.71E+12,2,3.172200504,315.2386111,2934.595099,-1,-1
1.71E+12,2,3.172208432,315.2378233,2934.597828,-1,-1
1.71E+12,2,3.172216302,315.2370412,2934.600518,-1,-1
1.71E+12,2,3.172224119,315.2362644,2934.603163,-1,-1
1.71E+12,2,3.172231886,315.2354926,2934.605759,-1,-1
1.71E+12,2,3.172239611,315.2347249,2934.608299,-1,-1
1.71E+12,2,3.1722473,315.2339608,2934.610775,-1,-1
1.71E+12,2,3.172254963,315.2331994,2934.613179,-1,-1
1.71E+12,2,3.172262602,315.2324402,2934.615502,-1,-1
1.71E+12,2,3.172270221,315.2316832,2934.617737,-1,-1
1.71E+12,2,3.172277822,315.2309279,2934.619877,-1,-1
1.71E+12,2,3.17228541,315.2301739,2934.621914,-1,-1
1.71E+12,2,3.172292991,315.2294205,2934.623845,-1,-1
1.71E+12,2,3.172300571,315.2286674,2934.625665,-1,-1
1.71E+12,2,3.172308155,315.2279137,2934.627373,-1,-1
1.71E+12,2,3.172315751,315.227159,2934.628969,-1,-1
1.71E+12,2,3.172323363,315.2264027,2934.630454,-1,-1
1.71E+12,2,3.172330997,315.2256441,2934.63183,-1,-1
1.71E+12,2,3.17233866,315.2248827,2934.633101,-1,-1
1.71E+12,2,3.17234636,315.2241176,2934.634269,-1,-1
1.71E+12,2,3.172354106,315.223348,2934.635338,-1,-1
1.71E+12,2,3.172361905,315.2225731,2934.63631,-1,-1
1.71E+12,2,3.17236976,315.2217927,2934.63719,-1,-1
1.71E+12,2,3.172377675,315.2210062,2934.637984,-1,-1
1.71E+12,2,3.172385659,315.220213,2934.638693,-1,-1
1.71E+12,2,3.172393715,315.2194125,2934.639322,-1,-1
1.71E+12,2,3.172401851,315.2186043,2934.639875,-1,-1
1.71E+12,2,3.172410071,315.2177875,2934.640357,-1,-1
1.71E+12,2,3.172418384,315.2169617,2934.64077,-1,-1
1.71E+12,2,3.172426795,315.216126,2934.641121,-1,-1
1.71E+12,2,3.172435311,315.2152799,2934.641413,-1,-1
1.71E+12,2,3.172443935,315.2144231,2934.641651,-1,-1
1.71E+12,2,3.172452668,315.2135555,2934.641838,-1,-1
1.71E+12,2,3.172461511,315.2126769,2934.641978,-1,-1
1.71E+12,2,3.172470465,315.2117873,2934.642075,-1,-1
1.71E+12,2,3.17247953,315.2108868,2934.642134,-1,-1
1.71E+12,2,3.172488706,315.2099751,2934.642157,-1,-1
1.71E+12,2,3.172498003,315.2090515,2934.64215,-1,-1
1.71E+12,2,3.172507427,315.2081153,2934.642118,-1,-1
1.71E+12,2,3.172516981,315.2071662,2934.642065,-1,-1
1.71E+12,2,3.172526667,315.2062039,2934.641997,-1,-1
1.71E+12,2,3.17253649,315.205228,2934.641921,-1,-1
1.71E+12,2,3.172546455,315.2042382,2934.641841,-1,-1
1.71E+12,2,3.172556562,315.2032341,2934.641759,-1,-1
1.71E+12,2,3.172566815,315.2022156,2934.641678,-1,-1
1.71E+12,2,3.172577212,315.2011827,2934.641602,-1,-1
1.71E+12,2,3.172587757,315.2001351,2934.641531,-1,-1
1.71E+12,2,3.17259845,315.1990729,2934.641468,-1,-1
1.71E+12,2,3.172609296,315.1979956,2934.641415,-1,-1
1.71E+12,2,3.172620297,315.1969027,2934.641373,-1,-1
1.71E+12,2,3.172631454,315.1957944,2934.641345,-1,-1
1.71E+12,2,3.172642769,315.1946704,2934.641333,-1,-1
1.71E+12,2,3.172654244,315.1935306,2934.641341,-1,-1
1.71E+12,2,3.172665879,315.1923748,2934.641371,-1,-1
1.71E+12,2,3.172677674,315.1912031,2934.641425,-1,-1
1.71E+12,2,3.172689629,315.1900156,2934.641505,-1,-1
1.71E+12,2,3.172701744,315.1888123,2934.641612,-1,-1
1.71E+12,2,3.172714017,315.1875931,2934.641746,-1,-1
1.71E+12,2,3.172726448,315.1863584,2934.641909,-1,-1
1.71E+12,2,3.172739034,315.1851081,2934.642101,-1,-1
1.71E+12,2,3.172751773,315.1838428,2934.642325,-1,-1
1.71E+12,2,3.172764661,315.1825627,2934.642582,-1,-1
1.71E+12,2,3.172777697,315.1812678,2934.642871,-1,-1
1.71E+12,2,3.17279088,315.1799584,2934.643194,-1,-1
1.71E+12,2,3.17280421,315.1786344,2934.64355,-1,-1
1.71E+12,2,3.17281769,315.1772954,2934.64394,-1,-1
1.71E+12,2,3.172831321,315.1759415,2934.644361,-1,-1
1.71E+12,2,3.1728451,315.1745729,2934.644812,-1,-1
1.71E+12,2,3.172859026,315.1731898,2934.645289,-1,-1
1.71E+12,2,3.172873099,315.1717921,2934.645791,-1,-1
1.71E+12,2,3.172887315,315.17038,2934.646317,-1,-1
1.71E+12,2,3.172901674,315.1689539,2934.646863,-1,-1
1.71E+12,2,3.172916174,315.1675137,2934.647429,-1,-1
1.71E+12,2,3.172930814,315.1660597,2934.648012,-1,-1
1.71E+12,2,3.172945591,315.1645921,2934.64861,-1,-1
1.71E+12,2,3.172960505,315.1631109,2934.649221,-1,-1
1.71E+12,2,3.172975554,315.1616162,2934.649842,-1,-1
1.71E+12,2,3.172990736,315.1601084,2934.650473,-1,-1
1.71E+12,2,3.173006053,315.1585872,2934.651112,-1,-1
1.71E+12,2,3.173021506,315.1570525,2934.651756,-1,-1
1.71E+12,2,3.173037098,315.155504,2934.652403,-1,-1
1.71E+12,2,3.173052829,315.1539416,2934.653048,-1,-1
1.71E+12,2,3.1730687,315.1523655,2934.653691,-1,-1
1.71E+12,2,3.17308471,315.1507755,2934.65433,-1,-1
1.71E+12,2,3.173100858,315.1491719,2934.654962,-1,-1
1.71E+12,2,3.173117143,315.1475546,2934.655587,-1,-1
1.71E+12,2,3.173133565,315.1459238,2934.6562,-1,-1
1.71E+12,2,3.173150122,315.1442796,2934.6568,-1,-1
1.71E+12,2,3.173166817,315.1426217,2934.657386,-1,-1
1.71E+12,2,3.173183649,315.1409502,2934.657956,-1,-1
1.71E+12,2,3.17320062,315.1392649,2934.65851,-1,-1
1.71E+12,2,3.173217732,315.1375656,2934.659046,-1,-1
1.71E+12,2,3.173234986,315.1358524,2934.659565,-1,-1
1.71E+12,2,3.173252379,315.1341253,2934.660066,-1,-1
1.71E+12,2,3.173269916,315.1323839,2934.660547,-1,-1
1.71E+12,2,3.173287601,315.1306278,2934.661008,-1,-1
1.71E+12,2,3.173305438,315.1288567,2934.661444,-1,-1
1.71E+12,2,3.173323432,315.12707,2934.661854,-1,-1
1.71E+12,2,3.173341583,315.1252677,2934.662237,-1,-1
1.71E+12,2,3.173359891,315.1234499,2934.662587,-1,-1
1.71E+12,2,3.173378358,315.1216163,2934.662903,-1,-1
1.71E+12,2,3.17339699,315.1197663,2934.663182,-1,-1
1.71E+12,2,3.17341579,315.1178997,2934.663423,-1,-1
1.71E+12,2,3.173434761,315.1160162,2934.663624,-1,-1
1.71E+12,2,3.173453906,315.1141154,2934.663783,-1,-1
1.71E+12,2,3.173473229,315.1121969,2934.663899,-1,-1
1.71E+12,2,3.173492734,315.1102605,2934.663971,-1,-1
1.71E+12,2,3.173512421,315.108306,2934.663998,-1,-1
1.71E+12,2,3.173532293,315.1063331,2934.663978,-1,-1
1.71E+12,2,3.173552355,315.1043414,2934.663911,-1,-1
1.71E+12,2,3.173572611,315.1023305,2934.663798,-1,-1
1.71E+12,2,3.173593064,315.1003,2934.663638,-1,-1
1.71E+12,2,3.17361372,315.0982494,2934.66343,-1,-1
1.71E+12,2,3.173634585,315.0961782,2934.663176,-1,-1
1.71E+12,2,3.173655663,315.0940858,2934.662875,-1,-1
1.71E+12,2,3.173676959,315.0919718,2934.662527,-1,-1
1.71E+12,2,3.173698478,315.0898357,2934.66213,-1,-1
1.71E+12,2,3.173720222,315.0876773,2934.661685,-1,-1
1.71E+12,2,3.173742194,315.0854963,2934.66119,-1,-1
1.71E+12,2,3.173764397,315.0832924,2934.660644,-1,-1
1.71E+12,2,3.173786838,315.0810649,2934.660047,-1,-1
1.71E+12,2,3.173809522,315.0788133,2934.659399,-1,-1
1.71E+12,2,3.173832451,315.0765374,2934.658698,-1,-1
1.71E+12,2,3.173855632,315.0742366,2934.657946,-1,-1
1.71E+12,2,3.17387907,315.0719103,2934.657143,-1,-1
1.71E+12,2,3.173902766,315.0695584,2934.656292,-1,-1
1.71E+12,2,3.173926721,315.0671809,2934.655394,-1,-1
1.71E+12,2,3.173950933,315.0647779,2934.654453,-1,-1
1.71E+12,2,3.173975404,315.0623492,2934.653475,-1,-1
1.71E+12,2,3.174000143,315.059894,2934.652467,-1,-1
1.71E+12,2,3.174025155,315.0574117,2934.651437,-1,-1
1.71E+12,2,3.17405044,315.0549023,2934.650393,-1,-1
1.71E+12,2,3.174076,315.0523658,2934.649339,-1,-1
1.71E+12,2,3.174101831,315.0498023,2934.64828,-1,-1
1.71E+12,2,3.174127933,315.0472121,2934.647217,-1,-1
1.71E+12,2,3.174154307,315.0445948,2934.646152,-1,-1
1.71E+12,2,3.174180955,315.0419504,2934.645083,-1,-1
1.71E+12,2,3.174207878,315.0392787,2934.644007,-1,-1
1.71E+12,2,3.174235078,315.0365797,2934.642925,-1,-1
1.71E+12,2,3.174262556,315.033853,2934.641832,-1,-1
1.71E+12,2,3.174290313,315.0310988,2934.640728,-1,-1
1.71E+12,2,3.174318344,315.0283174,2934.639609,-1,-1
1.71E+12,2,3.174346648,315.025509,2934.638474,-1,-1
1.71E+12,2,3.174375222,315.0226737,2934.637322,-1,-1
1.71E+12,2,3.174404066,315.0198118,2934.636152,-1,-1
1.71E+12,2,3.17443318,315.0169231,2934.634965,-1,-1
1.71E+12,2,3.174462562,315.0140079,2934.633764,-1,-1
1.71E+12,2,3.17449221,315.0110663,2934.63255,-1,-1
1.71E+12,2,3.174522127,315.0080981,2934.631326,-1,-1
1.71E+12,2,3.174552311,315.0051035,2934.630094,-1,-1
1.71E+12,2,3.174582761,315.0020825,2934.628856,-1,-1
1.71E+12,2,3.174613478,314.9990351,2934.627612,-1,-1
1.71E+12,2,3.174644456,314.9959617,2934.626364,-1,-1
1.71E+12,2,3.174675693,314.9928629,2934.625113,-1,-1
1.71E+12,2,3.174707185,314.9897388,2934.623861,-1,-1
1.71E+12,2,3.174738929,314.9865897,2934.622611,-1,-1
1.71E+12,2,3.174770923,314.9834158,2934.621364,-1,-1
1.71E+12,2,3.174803161,314.9802178,2934.620123,-1,-1
1.71E+12,2,3.174835639,314.9769961,2934.618887,-1,-1
1.71E+12,2,3.17486835,314.9737513,2934.617659,-1,-1
1.71E+12,2,3.174901287,314.9704841,2934.61644,-1,-1
1.71E+12,2,3.174934447,314.9671949,2934.615229,-1,-1
1.71E+12,2,3.174967825,314.9638841,2934.614028,-1,-1
1.71E+12,2,3.175001416,314.9605523,2934.612839,-1,-1
1.71E+12,2,3.175035211,314.9572003,2934.611663,-1,-1
1.71E+12,2,3.175069205,314.9538286,2934.610506,-1,-1
1.71E+12,2,3.175103392,314.9504378,2934.609375,-1,-1
1.71E+12,2,3.175137767,314.9470285,2934.60828,-1,-1
1.71E+12,2,3.175172322,314.9436013,2934.607233,-1,-1
1.71E+12,2,3.175207053,314.9401568,2934.606242,-1,-1
1.71E+12,2,3.175241955,314.9366953,2934.605315,-1,-1
1.71E+12,2,3.175277026,314.9332172,2934.604462,-1,-1
1.71E+12,2,3.175312261,314.9297229,2934.60369,-1,-1
1.71E+12,2,3.175347654,314.926213,2934.603007,-1,-1
1.71E+12,2,3.175383205,314.9226875,2934.602417,-1,-1
1.71E+12,2,3.175418909,314.9191468,2934.601922,-1,-1
1.71E+12,2,3.175454762,314.9155915,2934.601523,-1,-1
1.71E+12,2,3.17549076,314.912022,2934.601218,-1,-1
1.71E+12,2,3.175526897,314.9084386,2934.601003,-1,-1
1.71E+12,2,3.175563171,314.9048418,2934.600874,-1,-1
1.71E+12,2,3.175599573,314.9012323,2934.600825,-1,-1
1.71E+12,2,3.175636099,314.8976107,2934.600849,-1,-1
1.71E+12,2,3.175672742,314.8939774,2934.600943,-1,-1
1.71E+12,2,3.175709499,314.890333,2934.601104,-1,-1
1.71E+12,2,3.175746362,314.8866781,2934.601327,-1,-1
1.71E+12,2,3.175783328,314.8830132,2934.601613,-1,-1
1.71E+12,2,3.175820392,314.8793386,2934.601958,-1,-1
1.71E+12,2,3.175857551,314.8756546,2934.602364,-1,-1
1.71E+12,2,3.175894806,314.8719612,2934.602828,-1,-1
1.71E+12,2,3.175932154,314.8682587,2934.603353,-1,-1
1.71E+12,2,3.175969595,314.8645471,2934.603936,-1,-1
1.71E+12,2,3.176007126,314.8608266,2934.604578,-1,-1
1.71E+12,2,3.176044746,314.8570974,2934.605278,-1,-1
1.71E+12,2,3.176082454,314.8533595,2934.606035,-1,-1
1.71E+12,2,3.176120247,314.8496132,2934.606849,-1,-1
1.71E+12,2,3.176158122,314.8458591,2934.60772,-1,-1
1.71E+12,2,3.176196077,314.842097,2934.608645,-1,-1
1.71E+12,2,3.176234117,314.8383266,2934.609622,-1,-1
1.71E+12,2,3.176272239,314.8345481,2934.610651,-1,-1
1.71E+12,2,3.176310445,314.8307615,2934.611728,-1,-1
1.71E+12,2,3.176348737,314.8269664,2934.61285,-1,-1
1.71E+12,2,3.176387118,314.8231625,2934.614012,-1,-1
1.71E+12,2,3.176425591,314.8193497,2934.615214,-1,-1
1.71E+12,2,3.176464158,314.8155277,2934.616457,-1,-1
1.71E+12,2,3.176502821,314.8116962,2934.617742,-1,-1
1.71E+12,2,3.176541581,314.8078552,2934.619074,-1,-1
1.71E+12,2,3.176580437,314.8040048,2934.620455,-1,-1
1.71E+12,2,3.176619388,314.8001451,2934.621891,-1,-1
1.71E+12,2,3.176658438,314.7962758,2934.623387,-1,-1
1.71E+12,2,3.176697588,314.7923965,2934.624945,-1,-1
1.71E+12,2,3.176736846,314.7885068,2934.626573,-1,-1
1.71E+12,2,3.176776216,314.7846061,2934.628272,-1,-1
1.71E+12,2,3.176815702,314.7806939,2934.630047,-1,-1
1.71E+12,2,3.176855311,314.7767696,2934.6319,-1,-1
1.71E+12,2,3.176895052,314.7728325,2934.633835,-1,-1
1.71E+12,2,3.176934929,314.7688819,2934.63585,-1,-1
1.71E+12,2,3.17697495,314.7649172,2934.637945,-1,-1
1.71E+12,2,3.177015121,314.7609378,2934.640118,-1,-1
1.71E+12,2,3.177055448,314.7569431,2934.642369,-1,-1
1.71E+12,2,3.177095935,314.7529325,2934.644695,-1,-1
1.71E+12,2,3.177136585,314.748906,2934.647093,-1,-1
1.71E+12,2,3.177177403,314.744863,2934.649559,-1,-1
1.71E+12,2,3.177218396,314.7408027,2934.652089,-1,-1
1.71E+12,2,3.177259573,314.7367244,2934.654673,-1,-1
1.71E+12,2,3.177300939,314.7326275,2934.657305,-1,-1
1.71E+12,2,3.177342501,314.7285112,2934.659977,-1,-1
1.71E+12,2,3.177384268,314.7243748,2934.66268,-1,-1
1.71E+12,2,3.177426247,314.7202176,2934.665406,-1,-1
1.71E+12,2,3.177468443,314.716039,2934.668144,-1,-1
1.71E+12,2,3.177510859,314.7118387,2934.670885,-1,-1
1.71E+12,2,3.177553498,314.7076165,2934.67362,-1,-1
1.71E+12,2,3.177596367,314.7033717,2934.676343,-1,-1
1.71E+12,2,3.177639475,314.6991033,2934.679046,-1,-1
1.71E+12,2,3.177682828,314.6948108,2934.681721,-1,-1
1.71E+12,2,3.177726435,314.6904933,2934.684362,-1,-1
1.71E+12,2,3.177770304,314.68615,2934.686961,-1,-1
1.71E+12,2,3.177814443,314.6817801,2934.689513,-1,-1
1.71E+12,2,3.177858858,314.6773831,2934.692013,-1,-1
1.71E+12,2,3.177903554,314.6729583,2934.694455,-1,-1
1.71E+12,2,3.177948537,314.6685053,2934.696835,-1,-1
1.71E+12,2,3.177993815,314.6640232,2934.699149,-1,-1
1.71E+12,2,3.178039395,314.6595113,2934.701391,-1,-1
1.71E+12,2,3.178085285,314.654969,2934.703559,-1,-1
1.71E+12,2,3.178131491,314.6503954,2934.705653,-1,-1
1.71E+12,2,3.178178018,314.6457904,2934.707674,-1,-1
1.71E+12,2,3.178224869,314.6411533,2934.709624,-1,-1
1.71E+12,2,3.178272049,314.6364838,2934.711507,-1,-1
1.71E+12,2,3.178319563,314.6317815,2934.713326,-1,-1
1.71E+12,2,3.178367414,314.6270459,2934.715085,-1,-1
1.71E+12,2,3.178415606,314.6222767,2934.716784,-1,-1
1.71E+12,2,3.178464147,314.6174731,2934.718423,-1,-1
1.71E+12,2,3.178513039,314.612635,2934.720002,-1,-1
1.71E+12,2,3.178562286,314.6077619,2934.721521,-1,-1
1.71E+12,2,3.178611886,314.602854,2934.72298,-1,-1
1.71E+12,2,3.178661842,314.5979111,2934.724379,-1,-1
1.71E+12,2,3.178712156,314.5929329,2934.725716,-1,-1
1.71E+12,2,3.17876283,314.5879192,2934.72699,-1,-1
1.71E+12,2,3.178813869,314.5828695,2934.728199,-1,-1
1.71E+12,2,3.178865278,314.5777834,2934.729342,-1,-1
1.71E+12,2,3.178917057,314.5726609,2934.730418,-1,-1
1.71E+12,2,3.178969208,314.5675017,2934.731423,-1,-1
1.71E+12,2,3.179021732,314.5623058,2934.732356,-1,-1
1.71E+12,2,3.179074626,314.5570734,2934.733213,-1,-1
1.71E+12,2,3.17912789,314.5518046,2934.733991,-1,-1
1.71E+12,2,3.179181522,314.5464995,2934.734687,-1,-1
1.71E+12,2,3.17923552,314.5411584,2934.735298,-1,-1
1.71E+12,2,3.179289883,314.5357814,2934.735823,-1,-1
1.71E+12,2,3.179344607,314.5303688,2934.736261,-1,-1
1.71E+12,2,3.179399692,314.5249207,2934.736615,-1,-1
1.71E+12,2,3.179455132,314.5194376,2934.736885,-1,-1
1.71E+12,2,3.179510925,314.5139198,2934.737072,-1,-1
1.71E+12,2,3.179567068,314.5083675,2934.737178,-1,-1
1.71E+12,2,3.179623556,314.5027814,2934.737205,-1,-1
1.71E+12,2,3.179680384,314.4971617,2934.737156,-1,-1
1.71E+12,2,3.179737549,314.4915089,2934.737034,-1,-1
1.71E+12,2,3.179795047,314.4858233,2934.736843,-1,-1
1.71E+12,2,3.179852872,314.4801055,2934.736587,-1,-1
1.71E+12,2,3.179911021,314.4743559,2934.73627,-1,-1
1.71E+12,2,3.179969486,314.4685752,2934.735892,-1,-1
1.71E+12,2,3.180028259,314.4627643,2934.735456,-1,-1
1.71E+12,2,3.180087331,314.4569239,2934.734963,-1,-1
1.71E+12,2,3.180146695,314.4510549,2934.734414,-1,-1
1.71E+12,2,3.180206343,314.445158,2934.733806,-1,-1
1.71E+12,2,3.180266267,314.4392339,2934.733137,-1,-1
1.71E+12,2,3.180326462,314.4332833,2934.732405,-1,-1
1.71E+12,2,3.180386918,314.427307,2934.731607,-1,-1
1.71E+12,2,3.180447631,314.4213056,2934.730746,-1,-1
1.71E+12,2,3.180508594,314.4152795,2934.729822,-1,-1
1.71E+12,2,3.180569802,314.4092295,2934.728837,-1,-1
1.71E+12,2,3.180631249,314.4031561,2934.727797,-1,-1
1.71E+12,2,3.180692929,314.3970599,2934.726705,-1,-1
1.71E+12,2,3.180754834,314.3909415,2934.725566,-1,-1
1.71E+12,2,3.180816959,314.3848017,2934.724388,-1,-1
1.71E+12,2,3.180879295,314.3786411,2934.723179,-1,-1
1.71E+12,2,3.180941836,314.3724606,2934.721946,-1,-1
1.71E+12,2,3.181004572,314.366261,2934.720696,-1,-1
1.71E+12,2,3.181067497,314.360043,2934.719438,-1,-1
1.71E+12,2,3.181130605,314.353807,2934.718182,-1,-1
1.71E+12,2,3.181193893,314.3475534,2934.716936,-1,-1
1.71E+12,2,3.181257355,314.3412829,2934.715704,-1,-1
1.71E+12,2,3.181320986,314.334996,2934.714494,-1,-1
1.71E+12,2,3.181384777,314.3286934,2934.713309,-1,-1
1.71E+12,2,3.181448722,314.3223758,2934.712153,-1,-1
1.71E+12,2,3.181512816,314.3160439,2934.711032,-1,-1
1.71E+12,2,3.181577051,314.3096982,2934.709949,-1,-1
1.71E+12,2,3.181641424,314.3033391,2934.708908,-1,-1
1.71E+12,2,3.181705929,314.2969671,2934.707912,-1,-1
1.71E+12,2,3.181770561,314.2905829,2934.706964,-1,-1
1.71E+12,2,3.181835314,314.284187,2934.706066,-1,-1
1.71E+12,2,3.181900185,314.2777796,2934.705221,-1,-1
1.71E+12,2,3.18196517,314.2713612,2934.70443,-1,-1
1.71E+12,2,3.182030266,314.2649321,2934.703695,-1,-1
1.71E+12,2,3.182095469,314.2584927,2934.703017,-1,-1
1.71E+12,2,3.182160772,314.2520438,2934.702397,-1,-1
1.71E+12,2,3.182226168,314.2455858,2934.701837,-1,-1
1.71E+12,2,3.182291655,314.2391191,2934.701338,-1,-1
1.71E+12,2,3.182357233,314.2326437,2934.700901,-1,-1
1.71E+12,2,3.182422899,314.2261599,2934.700527,-1,-1
1.71E+12,2,3.182488653,314.2196676,2934.700216,-1,-1
1.71E+12,2,3.182554495,314.213167,2934.699969,-1,-1
1.71E+12,2,3.182620424,314.206658,2934.699785,-1,-1
1.71E+12,2,3.182686442,314.2001405,2934.699663,-1,-1
1.71E+12,2,3.182752549,314.1936145,2934.699605,-1,-1
1.71E+12,2,3.182818745,314.18708,2934.699608,-1,-1
1.71E+12,2,3.182885027,314.1805373,2934.69967,-1,-1
1.71E+12,2,3.1829514,314.1739859,2934.699792,-1,-1
1.71E+12,2,3.183017864,314.1674258,2934.699971,-1,-1
1.71E+12,2,3.183084424,314.1608564,2934.700206,-1,-1
1.71E+12,2,3.183151083,314.1542776,2934.700495,-1,-1
1.71E+12,2,3.183217838,314.1476897,2934.700837,-1,-1
1.71E+12,2,3.183284688,314.1410927,2934.701228,-1,-1
1.71E+12,2,3.183351633,314.1344866,2934.701667,-1,-1
1.71E+12,2,3.183418676,314.1278711,2934.702152,-1,-1
1.71E+12,2,3.183485819,314.121246,2934.70268,-1,-1
1.71E+12,2,3.183553065,314.1146111,2934.703249,-1,-1
1.71E+12,2,3.183620418,314.1079659,2934.703858,-1,-1
1.71E+12,2,3.18368788,314.1013102,2934.704505,-1,-1
1.71E+12,2,3.183755457,314.0946436,2934.705187,-1,-1
1.71E+12,2,3.183823149,314.0879658,2934.705901,-1,-1
1.71E+12,2,3.183890959,314.0812767,2934.706641,-1,-1
1.71E+12,2,3.18395889,314.0745761,2934.707402,-1,-1
1.71E+12,2,3.184026944,314.0678636,2934.70818,-1,-1
1.71E+12,2,3.184095124,314.061139,2934.708967,-1,-1
1.71E+12,2,3.184163433,314.0544019,2934.709756,-1,-1
1.71E+12,2,3.184231877,314.0476519,2934.710539,-1,-1
1.71E+12,2,3.184300458,314.0408886,2934.711307,-1,-1
1.71E+12,2,3.184369181,314.0341118,2934.712053,-1,-1
1.71E+12,2,3.184438044,314.0273213,2934.712767,-1,-1
1.71E+12,2,3.184507051,314.020517,2934.71344,-1,-1
1.71E+12,2,3.184576202,314.0136988,2934.714064,-1,-1
1.71E+12,2,3.184645498,314.0068667,2934.714634,-1,-1
1.71E+12,2,3.184714936,314.0000208,2934.715144,-1,-1
1.71E+12,2,3.184784518,313.993161,2934.715591,-1,-1
1.71E+12,2,3.184854249,313.9862869,2934.71597,-1,-1
1.71E+12,2,3.184924132,313.9793981,2934.716276,-1,-1
1.71E+12,2,3.18499417,313.9724944,2934.716505,-1,-1
1.71E+12,2,3.185064363,313.9655757,2934.716652,-1,-1
1.71E+12,2,3.185134715,313.9586417,2934.716713,-1,-1
1.71E+12,2,3.185205227,313.9516922,2934.716682,-1,-1
1.71E+12,2,3.185275901,313.9447271,2934.716556,-1,-1
1.71E+12,2,3.185346738,313.9377461,2934.71633,-1,-1
1.71E+12,2,3.18541774,313.9307493,2934.716001,-1,-1
1.71E+12,2,3.185488908,313.9237365,2934.715566,-1,-1
1.71E+12,2,3.185560245,313.9167073,2934.71502,-1,-1
1.71E+12,2,3.185631752,313.9096616,2934.714359,-1,-1
1.71E+12,2,3.185703429,313.9025996,2934.713581,-1,-1
1.71E+12,2,3.185775273,313.8955214,2934.712682,-1,-1
1.71E+12,2,3.185847286,313.8884269,2934.711657,-1,-1
1.71E+12,2,3.185919466,313.8813163,2934.710502,-1,-1
1.71E+12,2,3.185991813,313.8741895,2934.709212,-1,-1
1.71E+12,2,3.186064329,313.8670463,2934.707787,-1,-1
1.71E+12,2,3.186137014,313.859887,2934.706222,-1,-1
1.71E+12,2,3.186209864,313.8527116,2934.704515,-1,-1
1.71E+12,2,3.186282877,313.8455205,2934.702662,-1,-1
1.71E+12,2,3.186356051,313.8383139,2934.700663,-1,-1
1.71E+12,2,3.186429382,313.8310921,2934.698517,-1,-1
1.71E+12,2,3.186502865,313.8238557,2934.696229,-1,-1
1.71E+12,2,3.186576494,313.8166052,2934.693802,-1,-1
1.71E+12,2,3.186650263,313.8093413,2934.691244,-1,-1
1.71E+12,2,3.186724166,313.8020645,2934.688561,-1,-1
1.71E+12,2,3.186798198,313.7947753,2934.685765,-1,-1
1.71E+12,2,3.186872354,313.7874742,2934.682865,-1,-1
1.71E+12,2,3.18694663,313.7801617,2934.67987,-1,-1
1.71E+12,2,3.187021022,313.772838,2934.676791,-1,-1
1.71E+12,2,3.187095522,313.765504,2934.673635,-1,-1
1.71E+12,2,3.187170125,313.7581602,2934.670412,-1,-1
1.71E+12,2,3.187244826,313.750807,2934.66713,-1,-1
1.71E+12,2,3.187319619,313.7434452,2934.663796,-1,-1
1.71E+12,2,3.187394497,313.7360753,2934.66042,-1,-1
1.71E+12,2,3.187469455,313.7286977,2934.657008,-1,-1
1.71E+12,2,3.187544486,313.7213134,2934.653569,-1,-1
1.71E+12,2,3.187619582,313.7139229,2934.650112,-1,-1
1.71E+12,2,3.187694736,313.7065272,2934.646645,-1,-1
1.71E+12,2,3.187769939,313.6991268,2934.643171,-1,-1
1.71E+12,2,3.187845184,313.6917227,2934.639697,-1,-1
1.71E+12,2,3.187920465,313.6843152,2934.636227,-1,-1
1.71E+12,2,3.187995774,313.6769054,2934.632766,-1,-1
1.71E+12,2,3.1880711,313.6694942,2934.629316,-1,-1
1.71E+12,2,3.188146437,313.6620822,2934.625883,-1,-1
1.71E+12,2,3.188221776,313.6546704,2934.622469,-1,-1
1.71E+12,2,3.188297102,313.64726,2934.619079,-1,-1
1.71E+12,2,3.188372406,313.6398523,2934.615717,-1,-1
1.71E+12,2,3.188447679,313.6324478,2934.612388,-1,-1
1.71E+12,2,3.188522913,313.6250475,2934.609098,-1,-1
1.71E+12,2,3.1885981,313.6176521,2934.60585,-1,-1
1.71E+12,2,3.188673232,313.6102624,2934.602652,-1,-1
1.71E+12,2,3.188748298,313.6028795,2934.599509,-1,-1
1.71E+12,2,3.188823288,313.5955044,2934.596429,-1,-1
1.71E+12,2,3.188898195,313.5881379,2934.59342,-1,-1
1.71E+12,2,3.188973007,313.5807808,2934.590489,-1,-1
1.71E+12,2,3.189047716,313.5734343,2934.587642,-1,-1
1.71E+12,2,3.189122314,313.5660989,2934.584886,-1,-1
1.71E+12,2,3.189196793,313.5587756,2934.58223,-1,-1
1.71E+12,2,3.189271141,313.5514654,2934.579678,-1,-1
1.71E+12,2,3.189345348,313.5441694,2934.577235,-1,-1
1.71E+12,2,3.189419403,313.5368886,2934.574908,-1,-1
1.71E+12,2,3.189493298,313.5296239,2934.572701,-1,-1
1.71E+12,2,3.189567022,313.5223762,2934.570617,-1,-1
1.71E+12,2,3.189640567,313.5151464,2934.568662,-1,-1
1.71E+12,2,3.189713927,313.5079352,2934.566838,-1,-1
1.71E+12,2,3.189787093,313.5007433,2934.565148,-1,-1
1.71E+12,2,3.18986006,313.4935712,2934.563595,-1,-1
1.71E+12,2,3.18993282,313.4864197,2934.562186,-1,-1
1.71E+12,2,3.190005367,313.4792895,2934.560928,-1,-1
1.71E+12,2,3.190077692,313.4721814,2934.559825,-1,-1
1.71E+12,2,3.190149786,313.4650963,2934.558886,-1,-1
1.71E+12,2,3.190221643,313.4580347,2934.558117,-1,-1
1.71E+12,2,3.190293257,313.4509974,2934.557524,-1,-1
1.71E+12,2,3.190364623,313.4439847,2934.557114,-1,-1
1.71E+12,2,3.190435739,313.4369968,2934.556892,-1,-1
1.71E+12,2,3.190506606,313.4300336,2934.556863,-1,-1
1.71E+12,2,3.190577224,313.4230952,2934.55703,-1,-1
1.71E+12,2,3.190647589,313.416182,2934.557395,-1,-1
1.71E+12,2,3.190717698,313.4092942,2934.55796,-1,-1
1.71E+12,2,3.19078755,313.4024319,2934.558725,-1,-1
1.71E+12,2,3.190857139,313.3955957,2934.559689,-1,-1
1.71E+12,2,3.190926463,313.3887859,2934.560845,-1,-1
1.71E+12,2,3.190995521,313.3820025,2934.562185,-1,-1
1.71E+12,2,3.191064309,313.3752458,2934.563696,-1,-1
1.71E+12,2,3.191132828,313.3685159,2934.565368,-1,-1
1.71E+12,2,3.191201077,313.3618128,2934.567189,-1,-1
1.71E+12,2,3.191269052,313.3551368,2934.569146,-1,-1
1.71E+12,2,3.19133675,313.3484883,2934.571227,-1,-1
1.71E+12,2,3.191404172,313.3418672,2934.573422,-1,-1
1.71E+12,2,3.191471323,313.335273,2934.575719,-1,-1
1.71E+12,2,3.191538206,313.3287055,2934.578103,-1,-1
1.71E+12,2,3.191604822,313.3221643,2934.580565,-1,-1
1.71E+12,2,3.191671176,313.3156493,2934.583093,-1,-1
1.71E+12,2,3.191737269,313.3091601,2934.58568,-1,-1
1.71E+12,2,3.191803101,313.3026968,2934.588316,-1,-1
1.71E+12,2,3.191868671,313.2962595,2934.590995,-1,-1
1.71E+12,2,3.19193398,313.2898482,2934.593709,-1,-1
1.71E+12,2,3.191999031,313.2834624,2934.596449,-1,-1
1.71E+12,2,3.192063836,313.2771011,2934.599208,-1,-1
1.71E+12,2,3.192128398,313.2707639,2934.601978,-1,-1
1.71E+12,2,3.192192724,313.2644501,2934.604753,-1,-1
1.71E+12,2,3.192256818,313.2581593,2934.607524,-1,-1
1.71E+12,2,3.192320682,313.2518915,2934.610286,-1,-1
1.71E+12,2,3.192384316,313.2456464,2934.613031,-1,-1
1.71E+12,2,3.192447727,313.2394236,2934.615751,-1,-1
1.71E+12,2,3.192510919,313.2332225,2934.618441,-1,-1
1.71E+12,2,3.192573896,313.2270428,2934.621094,-1,-1
1.71E+12,2,3.192636667,313.2208836,2934.623703,-1,-1
1.71E+12,2,3.192699237,313.2147443,2934.626264,-1,-1
1.71E+12,2,3.192761611,313.2086245,2934.62877,-1,-1
1.71E+12,2,3.192823794,313.2025238,2934.631217,-1,-1
1.71E+12,2,3.192885792,313.1964415,2934.633597,-1,-1
1.71E+12,2,3.192947613,313.1903768,2934.635905,-1,-1
1.71E+12,2,3.193009264,313.184329,2934.638136,-1,-1
1.71E+12,2,3.193070754,313.1782973,2934.640284,-1,-1
1.71E+12,2,3.193132088,313.1722812,2934.642348,-1,-1
1.71E+12,2,3.193193271,313.1662801,2934.644323,-1,-1
1.71E+12,2,3.193254309,313.1602935,2934.646205,-1,-1
1.71E+12,2,3.193315207,313.1543209,2934.647987,-1,-1
1.71E+12,2,3.19337597,313.1483618,2934.649663,-1,-1
1.71E+12,2,3.193436602,313.1424157,2934.651223,-1,-1
1.71E+12,2,3.193497109,313.1364822,2934.652658,-1,-1
1.71E+12,2,3.193557494,313.130561,2934.653956,-1,-1
1.71E+12,2,3.193617762,313.1246514,2934.655108,-1,-1
1.71E+12,2,3.193677919,313.1187529,2934.656109,-1,-1
1.71E+12,2,3.193737969,313.1128652,2934.656953,-1,-1
1.71E+12,2,3.193797918,313.1069876,2934.657637,-1,-1
1.71E+12,2,3.193857771,313.1011197,2934.658162,-1,-1
1.71E+12,2,3.193917531,313.0952611,2934.658529,-1,-1
1.71E+12,2,3.193977201,313.0894116,2934.658744,-1,-1
1.71E+12,2,3.194036786,313.0835706,2934.658812,-1,-1
1.71E+12,2,3.194096288,313.0777381,2934.658739,-1,-1
1.71E+12,2,3.194155708,313.0719138,2934.658531,-1,-1
1.71E+12,2,3.19421505,313.0660973,2934.658197,-1,-1
1.71E+12,2,3.194274315,313.0602886,2934.657743,-1,-1
1.71E+12,2,3.194333507,313.0544873,2934.657177,-1,-1
1.71E+12,2,3.194392629,313.048693,2934.656507,-1,-1
1.71E+12,2,3.194451685,313.0429054,2934.655741,-1,-1